"time","x","y","position","velocity","acceleration","heading","curvature","rotation"
0,14.7479,4.92284,0,0,4,-180,0,0
0.02,14.7434,4.92284,0.00450777,0.08,4,-180,0,0.025688
0.04,14.7389,4.92284,0.00901554,0.16,4,-179.999,0,0.102752
0.06,14.7344,4.92284,0.0135233,0.24,4,-179.999,0,0.231192
0.08,14.7299,4.92284,0.0180311,0.32,4,-179.998,0,0.411008
0.1,14.7254,4.92283,0.0225389,0.4,4,-179.998,0,0.642201
0.12,14.7186,4.92283,0.0293753,0.48,4,-179.997,0,0.924769
0.14,14.7077,4.92283,0.040258,0.56,4,-179.995,0,1.25871
0.16,14.6967,4.92283,0.0512441,0.64,4,-179.994,0,1.64403
0.18,14.6825,4.92283,0.0654267,0.72,4,-179.989,0,2.08073
0.2,14.6677,4.92283,0.0802441,0.8,4,-179.984,0,2.5688
0.22,14.6509,4.92282,0.0970674,0.88,4,-179.978,0,3.10825
0.24,14.6324,4.92281,0.11555,0.96,4,-179.97,0,3.69907
0.26,14.6125,4.9228,0.135457,1.04,4,-179.959,0,4.34128
0.28,14.591,4.92278,0.156944,1.12,4,-179.945,0,5.03485
0.3,14.5679,4.92276,0.180069,1.2,4,-179.929,0,5.7798
0.32,14.5431,4.92272,0.204845,1.28,4,-179.909,0,6.57613
0.34,14.5167,4.92268,0.231263,1.36,4,-179.885,0,7.42384
0.36,14.4886,4.92261,0.2593,1.44,4,-179.857,0,8.32292
0.38,14.459,4.92253,0.28893,1.52,4,-179.824,0,9.27338
0.4,14.4278,4.92242,0.320122,1.6,4,-179.785,0,10.2752
0.42,14.3951,4.92229,0.352845,1.68,4,-179.741,0,11.3284
0.44,14.3607,4.92212,0.387276,1.76,4,-179.691,0,12.433
0.46,14.3246,4.9219,0.423286,1.84,4,-179.633,0,13.589
0.48,14.2871,4.92165,0.460842,1.92,4,-179.569,0,14.7963
0.5,14.2479,4.92133,0.50007,2,4,-179.496,0,16.055
0.52,14.2071,4.92094,0.540861,2.08,4,-179.414,0,17.3651
0.54,14.1647,4.92047,0.583211,2.16,4,-179.324,0,18.7266
0.56,14.1207,4.91991,0.627255,2.24,4,-179.224,0,20.1394
0.58,14.0751,4.91925,0.67286,2.32,4,-179.113,0,21.6036
0.6,14.0279,4.91847,0.720051,2.4,4,-178.991,0,23.1192
0.62,13.9791,4.91756,0.768841,2.48,4,-178.858,0,24.6862
0.64,13.9287,4.91649,0.819237,2.56,4,-178.712,0,26.3045
0.66,13.8767,4.91525,0.871239,2.64,4,-178.553,0,27.9743
0.68,13.8232,4.91381,0.924842,2.72,4,-178.379,0,29.6954
0.7,13.768,4.91217,0.98004,2.8,4,-178.192,0,31.4678
0.72,13.7112,4.91027,1.03682,2.88,4,-177.989,0,33.2917
0.74,13.6529,4.90811,1.0952,2.95642,0.416671,-177.77,0,35.1669
0.76,13.5938,4.90569,1.15438,2.96,0,-177.538,0,37.0935
0.78,13.5346,4.90303,1.21358,2.96,0,-177.297,0,39.0715
0.8,13.4755,4.90011,1.27278,2.96,0,-177.046,0,41.1008
0.82,13.4164,4.89692,1.33198,2.96,0,-176.787,0,43.1816
0.84,13.3573,4.89347,1.39118,2.96,0,-176.52,0,45.3137
0.86,13.2982,4.88974,1.45038,2.96,0,-176.247,0,47.4971
0.88,13.2391,4.88571,1.50958,2.96,0,-175.968,0,49.732
0.9,13.1801,4.88141,1.56878,2.96,0,-175.685,0,52.0182
0.92,13.1211,4.87681,1.62798,2.96,0,-175.4,0,54.3559
0.94,13.0621,4.87191,1.68718,2.96,0,-175.114,0,56.7448
0.96,13.0031,4.86673,1.74638,2.96,0,-174.83,0,59.1852
0.98,12.9442,4.86125,1.80558,2.96,0,-174.55,0,61.6769
1,12.8852,4.85548,1.86478,2.96,0,-174.278,0,64.2201
1.02,12.8264,4.84945,1.92398,2.96,0,-174.014,0,66.7889
1.04,12.7675,4.84315,1.98318,2.96,0,-173.764,0,69.3577
1.06,12.7087,4.83659,2.04238,2.96,0,-173.53,0,71.9265
1.08,12.6498,4.82981,2.10158,2.96,0,-173.314,0,74.4953
1.1,12.5911,4.82281,2.16078,2.96,0,-173.122,0,77.0641
1.12,12.5323,4.81564,2.21998,2.96,0,-172.954,0,79.6329
1.14,12.4735,4.8083,2.27918,2.96,0,-172.816,0,82.2017
1.16,12.4148,4.80084,2.33838,2.96,0,-172.706,0,84.7705
1.18,12.3561,4.79328,2.39758,2.96,0,-172.632,0,87.3393
1.2,12.2974,4.78567,2.45678,2.96,0,-172.589,0,89.9081
1.22,12.2387,4.77802,2.51598,2.96,0,-172.583,0,92.4769
1.24,12.18,4.77039,2.57518,2.96,0,-172.611,0,95.0457
1.26,12.1213,4.76281,2.63438,2.96,0,-172.674,0,97.6145
1.28,12.0626,4.7553,2.69358,2.96,0,-172.769,0,100.183
1.3,12.0038,4.74792,2.75278,2.96,0,-172.898,0,102.752
1.32,11.9451,4.74068,2.81198,2.96,0,-173.054,0,105.321
1.34,11.8863,4.73361,2.87118,2.96,0,-173.238,0,107.89
1.36,11.8275,4.72674,2.93038,2.96,0,-173.445,0,110.458
1.38,11.7687,4.7201,2.98958,2.96,0,-173.672,0,113.027
1.4,11.7098,4.7137,3.04878,2.96,0,-173.917,0,115.596
1.42,11.6509,4.70756,3.10798,2.96,0,-174.175,0,118.143
1.44,11.592,4.70169,3.16718,2.96,0,-174.445,0,120.638
1.46,11.5331,4.69609,3.22638,2.96,0,-174.722,0,123.082
1.48,11.4741,4.6908,3.28558,2.96,0,-175.005,0,125.475
1.5,11.4151,4.6858,3.34478,2.96,0,-175.29,0,127.816
1.52,11.3561,4.68108,3.40398,2.96,0,-175.576,0,130.106
1.54,11.2971,4.67666,3.46318,2.96,0,-175.86,0,132.345
1.56,11.238,4.67253,3.52238,2.96,0,-176.141,0,134.532
1.58,11.179,4.66869,3.58158,2.96,0,-176.416,0,136.668
1.6,11.1199,4.66513,3.64078,2.96,0,-176.686,0,138.752
1.62,11.0608,4.66184,3.69998,2.96,0,-176.948,0,140.785
1.64,11.0016,4.65881,3.75918,2.96,0,-177.202,0,142.767
1.66,10.9425,4.65606,3.81838,2.96,0,-177.447,0,144.697
1.68,10.8834,4.65355,3.87757,2.95732,-2.80214,-177.683,0,146.576
1.7,10.8249,4.6513,3.93611,2.88761,-4,-177.906,0,148.403
1.72,10.768,4.64932,3.99304,2.80761,-4,-178.113,0,150.179
1.74,10.7127,4.64759,4.04838,2.72761,-4,-178.305,0,151.904
1.76,10.6589,4.64608,4.10212,2.64761,-4,-178.482,0,153.578
1.78,10.6068,4.64478,4.15427,2.56761,-4,-178.646,0,155.2
1.8,10.5563,4.64365,4.20482,2.48761,-4,-178.796,0,156.77
1.82,10.5073,4.64268,4.25377,2.40761,-4,-178.933,0,158.29
1.84,10.46,4.64185,4.30113,2.32761,-4,-179.059,0,159.758
1.86,10.4142,4.64114,4.3469,2.24761,-4,-179.173,0,161.174
1.88,10.3701,4.64054,4.39105,2.16761,-4,-179.277,0,162.539
1.9,10.3276,4.64005,4.43356,2.08761,-4,-179.37,0,163.853
1.92,10.2866,4.63963,4.47454,2.00761,-4,-179.455,0,165.115
1.94,10.2472,4.63928,4.51387,1.92761,-4,-179.531,0,166.326
1.96,10.2095,4.63899,4.55163,1.84761,-4,-179.598,0,167.486
1.98,10.1734,4.63876,4.58775,1.76761,-4,-179.658,0,168.594
2,10.1387,4.63856,4.62239,1.68761,-4,-179.713,0,169.651
2.02,10.1059,4.63842,4.65525,1.60761,-4,-179.758,0,170.657
2.04,10.0746,4.6383,4.68656,1.52761,-4,-179.799,0,171.611
2.06,10.0448,4.6382,4.71632,1.44761,-4,-179.835,0,172.514
2.08,10.0166,4.63813,4.74449,1.36761,-4,-179.865,0,173.365
2.1,9.99007,4.63807,4.77105,1.28761,-4,-179.891,0,174.165
2.12,9.96514,4.63803,4.79598,1.20761,-4,-179.914,0,174.914
2.14,9.94185,4.638,4.81927,1.12761,-4,-179.932,0,175.611
2.16,9.92019,4.63798,4.84093,1.04761,-4,-179.947,0,176.257
2.18,9.90009,4.63796,4.86103,0.967606,-4,-179.96,0,176.851
2.2,9.88139,4.63795,4.87973,0.887606,-4,-179.969,0,177.394
2.22,9.86457,4.63794,4.89655,0.807606,-4,-179.978,0,177.886
2.24,9.8495,4.63794,4.91162,0.727606,-4,-179.984,0,178.326
2.26,9.83532,4.63793,4.92581,0.647606,-4,-179.988,0,178.715
2.28,9.82402,4.63793,4.93711,0.567606,-4,-179.991,0,179.053
2.3,9.81313,4.63793,4.94799,0.487606,-4,-179.994,0,179.339
2.32,9.80569,4.63793,4.95543,0.407606,-4,-179.996,0,179.574
2.34,9.80118,4.63793,4.95994,0.327606,-4,-179.996,0,179.758
2.36,9.79668,4.63793,4.96445,0.247606,-4,-179.997,0,179.89
2.38,9.79217,4.63793,4.96895,0.167606,-4,-179.997,0,179.971
2.4,9.78766,4.63793,4.97346,0.0876065,-4,-179.998,0,180
2.42,9.78315,4.63793,4.97797,0.00760648,-4,-179.998,0,180
