"time","x","y","position","velocity","acceleration","heading","curvature","rotation"
0,14.7622,3.37185,0,0,2,180,0,0
0.02,14.759,3.37185,0.00318748,0.04,2,180,0,0
0.04,14.7558,3.37185,0.00637495,0.08,2,180,0,0
0.06,14.7527,3.37185,0.00956243,0.12,2,180,0,0
0.08,14.7495,3.37185,0.0127499,0.16,2,179.999,0,0
0.1,14.7463,3.37185,0.0159374,0.2,2,179.999,0,0
0.12,14.7431,3.37185,0.0191249,0.24,2,179.999,0,0
0.14,14.7399,3.37185,0.0223123,0.28,2,179.999,0,0
0.16,14.7366,3.37185,0.0256409,0.32,2,179.999,0,0
0.18,14.7289,3.37185,0.0333362,0.36,2,179.999,0,0
0.2,14.7212,3.37185,0.0410314,0.4,2,179.998,0,0
0.22,14.7135,3.37185,0.0487267,0.44,2,179.998,0,0
0.24,14.7041,3.37185,0.0581266,0.48,2,179.997,0,0
0.26,14.6941,3.37185,0.0681553,0.52,2,179.995,0,0
0.28,14.6837,3.37185,0.0785533,0.56,2,179.994,0,0
0.3,14.6718,3.37185,0.0904491,0.6,2,179.992,0,0
0.32,14.6598,3.37185,0.102446,0.64,2,179.99,0,0
0.34,14.6463,3.37185,0.115948,0.68,2,179.988,0,0
0.36,14.6325,3.37186,0.12971,0.72,2,179.985,0,0
0.38,14.6176,3.37186,0.144645,0.76,2,179.981,0,0
0.4,14.602,3.37187,0.160208,0.8,2,179.977,0,0
0.42,14.5858,3.37187,0.176449,0.84,2,179.973,0,0
0.44,14.5684,3.37188,0.193798,0.88,2,179.967,0,0
0.46,14.5504,3.3719,0.211767,0.92,2,179.961,0,0
0.48,14.5318,3.37191,0.230445,0.96,2,179.954,0,0
0.5,14.5121,3.37193,0.250087,1,2,179.946,0,0
0.52,14.4917,3.37195,0.270537,1.04,2,179.938,0,0
0.54,14.4705,3.37197,0.291738,1.08,2,179.928,0,0
0.56,14.4485,3.372,0.313716,1.12,2,179.917,0,0
0.58,14.4257,3.37204,0.336488,1.16,2,179.905,0,0
0.6,14.4022,3.37208,0.360063,1.2,2,179.892,0,0
0.62,14.3778,3.37213,0.384448,1.24,2,179.878,0,0
0.64,14.3526,3.37218,0.409643,1.28,2,179.862,0,0
0.66,14.3266,3.37225,0.435647,1.32,2,179.845,0,0
0.68,14.2998,3.37233,0.462456,1.36,2,179.826,0,0
0.7,14.2721,3.37242,0.490068,1.4,2,179.806,0,0
0.72,14.2437,3.37252,0.518475,1.44,2,179.784,0,0
0.74,14.2145,3.37263,0.547673,1.48,2,179.76,0,0
0.76,14.1846,3.37277,0.577654,1.52,2,179.734,0,0
0.78,14.1538,3.37292,0.608412,1.56,2,179.707,0,0
0.8,14.1222,3.37309,0.64004,1.6,2,179.677,0,0
0.82,14.0898,3.37328,0.67246,1.64,2,179.646,0,0
0.84,14.0566,3.37349,0.705639,1.68,2,179.612,0,0
0.86,14.0226,3.37373,0.739623,1.72,2,179.575,0,0
0.88,13.9878,3.374,0.774452,1.76,2,179.537,0,0
0.9,13.9522,3.3743,0.81002,1.8,2,179.496,0,0
0.92,13.9158,3.37464,0.846442,1.84,2,179.452,0,0
0.94,13.8786,3.37501,0.883631,1.88,2,179.405,0,0
0.96,13.8406,3.37542,0.921635,1.92,2,179.356,0,0
0.98,13.8018,3.37587,0.960426,1.96,2,179.304,0,0
1,13.7622,3.37637,1,1.99406,0.466242,179.249,0,0
1.02,13.7223,3.37691,1.03996,2,0,179.192,0,0
1.04,13.6823,3.3775,1.07996,2,0,179.132,0,0
1.06,13.6423,3.37812,1.11996,2,0,179.071,0,0
1.08,13.6023,3.3788,1.15996,2,0,179.007,0,0
1.1,13.5623,3.37951,1.19996,2,0,178.943,0,0
1.12,13.5223,3.38028,1.23996,2,0,178.876,0,0
1.14,13.4823,3.38108,1.27996,2,0,178.808,0,0
1.16,13.4423,3.38194,1.31996,2,0,178.739,0,0
1.18,13.4023,3.38284,1.35996,2,0,178.668,0,0
1.2,13.3623,3.3838,1.39996,2,0,178.596,0,0
1.22,13.3224,3.3848,1.43996,2,0,178.523,0,0
1.24,13.2824,3.38586,1.47996,2,0,178.45,0,0
1.26,13.2424,3.38697,1.51996,2,0,178.375,0,0
1.28,13.2024,3.38813,1.55996,2,0,178.3,0,0
1.3,13.1624,3.38934,1.59996,2,0,178.225,0,0
1.32,13.1224,3.39061,1.63996,2,0,178.15,0,0
1.34,13.0825,3.39192,1.67996,2,0,178.076,0,0
1.36,13.0425,3.39329,1.71996,2,0,178.002,0,0
1.38,13.0025,3.39471,1.75996,2,0,177.929,0,0
1.4,12.9625,3.39618,1.79996,2,0,177.857,0,0
1.42,12.9226,3.3977,1.83996,2,0,177.788,0,0
1.44,12.8826,3.39927,1.87996,2,0,177.72,0,0
1.46,12.8426,3.40088,1.91996,2,0,177.655,0,0
1.48,12.8027,3.40254,1.95996,2,0,177.593,0,0
1.5,12.7627,3.40424,1.99996,2,0,177.535,0,0
1.52,12.7227,3.40598,2.03996,2,0,177.48,0,0
1.54,12.6828,3.40776,2.07996,2,0,177.43,0,0
1.56,12.6428,3.40957,2.11996,2,0,177.384,0,0
1.58,12.6029,3.41141,2.15996,2,0,177.343,0,0
1.6,12.5629,3.41328,2.19996,2,0,177.308,0,0
1.62,12.5229,3.41517,2.23996,2,0,177.278,0,0
1.64,12.483,3.41707,2.27996,2,0,177.254,0,0
1.66,12.443,3.419,2.31996,2,0,177.237,0,0
1.68,12.4031,3.42093,2.35996,2,0,177.226,0,0
1.7,12.3631,3.42287,2.39996,2,0,177.222,0,0
1.72,12.3232,3.4248,2.43996,2,0,177.223,0,0
1.74,12.2832,3.42674,2.47996,2,0,177.232,0,0
1.76,12.2433,3.42867,2.51996,2,0,177.247,0,0
1.78,12.2033,3.43058,2.55996,2,0,177.268,0,0
1.8,12.1634,3.43248,2.59996,2,0,177.296,0,0
1.82,12.1234,3.43435,2.63996,2,0,177.329,0,0
1.84,12.0835,3.4362,2.67996,2,0,177.368,0,0
1.86,12.0435,3.43803,2.71996,2,0,177.412,0,0
1.88,12.0035,3.43981,2.75996,2,0,177.461,0,0
1.9,11.9636,3.44157,2.79996,2,0,177.514,0,0
1.92,11.9236,3.44329,2.83996,2,0,177.571,0,0
1.94,11.8836,3.44496,2.87996,2,0,177.632,0,0
1.96,11.8437,3.44659,2.91996,2,0,177.695,0,0
1.98,11.8037,3.44817,2.95996,2,0,177.762,0,0
2,11.7637,3.44971,2.99996,2,0,177.831,0,0
2.02,11.7238,3.4512,3.03996,2,0,177.902,0,0
2.04,11.6838,3.45264,3.07996,2,0,177.974,0,0
2.06,11.6438,3.45403,3.11996,2,0,178.048,0,0
2.08,11.6038,3.45537,3.15996,2,0,178.122,0,0
2.1,11.5639,3.45665,3.19996,2,0,178.197,0,0
2.12,11.5239,3.45788,3.23996,2,0,178.272,0,0
2.14,11.4839,3.45906,3.27996,2,0,178.347,0,0
2.16,11.4439,3.46019,3.31996,2,0,178.422,0,0
2.18,11.4039,3.46126,3.35996,2,0,178.496,0,0
2.2,11.3639,3.46229,3.39996,2,0,178.569,0,0
2.22,11.324,3.46326,3.43996,2,0,178.641,0,0
2.24,11.284,3.46419,3.47996,2,0,178.713,0,0
2.26,11.244,3.46506,3.51996,2,0,178.782,0,0
2.28,11.204,3.46589,3.55996,2,0,178.851,0,0
2.3,11.164,3.46666,3.59996,2,0,178.918,0,0
2.32,11.124,3.4674,3.63996,2,0,178.983,0,0
2.34,11.084,3.46808,3.67996,2,0,179.047,0,0
2.36,11.044,3.46873,3.71996,2,0,179.109,0,0
2.38,11.004,3.46933,3.75996,2,-0.0222179,179.169,0,0
2.4,10.964,3.46989,3.79993,1.99431,-1.50034,179.228,0,0
2.42,10.9245,3.4704,3.83951,1.96068,-2,179.283,0,0
2.44,10.8857,3.47087,3.87831,1.92068,-2,179.336,0,0
2.46,10.8476,3.47129,3.91634,1.88068,-2,179.386,0,0
2.48,10.8105,3.47168,3.95354,1.84068,-2,179.433,0,0
2.5,10.774,3.47202,3.98998,1.80068,-2,179.478,0,0
2.52,10.7384,3.47233,4.02555,1.76068,-2,179.52,0,0
2.54,10.7036,3.47262,4.06039,1.72068,-2,179.559,0,0
2.56,10.6696,3.47286,4.0944,1.68068,-2,179.596,0,0
2.58,10.6364,3.47309,4.12759,1.64068,-2,179.631,0,0
2.6,10.604,3.47329,4.16002,1.60068,-2,179.663,0,0
2.62,10.5723,3.47347,4.19167,1.56068,-2,179.693,0,0
2.64,10.5416,3.47362,4.22244,1.52068,-2,179.721,0,0
2.66,10.5116,3.47376,4.25243,1.48068,-2,179.748,0,0
2.68,10.4824,3.47388,4.28164,1.44068,-2,179.772,0,0
2.7,10.4539,3.47399,4.31006,1.40068,-2,179.794,0,0
2.72,10.4263,3.47408,4.33768,1.36068,-2,179.815,0,0
2.74,10.3995,3.47417,4.3645,1.32068,-2,179.835,0,0
2.76,10.3735,3.47424,4.39052,1.28068,-2,179.852,0,0
2.78,10.3483,3.4743,4.41573,1.24068,-2,179.869,0,0
2.8,10.3239,3.47435,4.44013,1.20068,-2,179.884,0,0
2.82,10.3003,3.4744,4.46372,1.16068,-2,179.897,0,0
2.84,10.2775,3.47444,4.4865,1.12068,-2,179.91,0,0
2.86,10.2555,3.47447,4.5085,1.08068,-2,179.921,0,0
2.88,10.2343,3.4745,4.52971,1.04068,-2,179.931,0,0
2.9,10.2138,3.47452,4.55018,1.00068,-2,179.94,0,0
2.92,10.1942,3.47454,4.56982,0.960675,-2,179.948,0,0
2.94,10.1755,3.47455,4.58852,0.920675,-2,179.956,0,0
2.96,10.1575,3.47457,4.60651,0.880675,-2,179.962,0,0
2.98,10.1401,3.47458,4.62388,0.840675,-2,179.968,0,0
3,10.1239,3.47458,4.64012,0.800675,-2,179.973,0,0
3.02,10.1083,3.47459,4.6557,0.760675,-2,179.977,0,0
3.04,10.0934,3.4746,4.67064,0.720675,-2,179.982,0,0
3.06,10.0796,3.4746,4.68442,0.680675,-2,179.985,0,0
3.08,10.0661,3.4746,4.69793,0.640675,-2,179.987,0,0
3.1,10.054,3.47461,4.70995,0.600675,-2,179.99,0,0
3.12,10.0421,3.47461,4.72185,0.560675,-2,179.992,0,0
3.14,10.0317,3.47461,4.73228,0.520675,-2,179.994,0,0
3.16,10.0217,3.47461,4.7423,0.480675,-2,179.995,0,0
3.18,10.0123,3.47461,4.75174,0.440675,-2,179.996,0,0
3.2,10.0046,3.47461,4.75944,0.400675,-2,179.997,0,0
3.22,9.99686,3.47461,4.76713,0.360675,-2,179.998,0,0
3.24,9.98917,3.47461,4.77483,0.320675,-2,179.998,0,0
3.26,9.98576,3.47461,4.77823,0.280675,-2,179.999,0,0
3.28,9.98257,3.47461,4.78142,0.240675,-2,179.999,0,0
3.3,9.97939,3.47461,4.78461,0.200675,-2,179.999,0,0
3.32,9.9762,3.47461,4.7878,0.160675,-2,179.999,0,0
3.34,9.97301,3.47461,4.79098,0.120675,-2,179.999,0,0
3.36,9.96982,3.47461,4.79417,0.0806753,-2,179.999,0,0
3.38,9.96664,3.47461,4.79736,0.0406753,-2,179.999,0,0
3.4,9.96345,3.47461,4.80055,0.000675295,-2,179.999,0,0
