"time","x","y","position","velocity","acceleration","heading","curvature","rotation"
0,10.4307,3.36556,0,0,4,0,0,180
0.02,10.4352,3.36556,0.00450777,0.08,4,-0.000130995,0,-179.966
0.04,10.4397,3.36556,0.00901554,0.16,4,-0.000261989,0,-179.866
0.06,10.4442,3.36556,0.0135233,0.24,4,-0.000392984,0,-179.698
0.08,10.4487,3.36556,0.0180311,0.32,4,-0.000523979,0,-179.463
0.1,10.4532,3.36556,0.0225389,0.4,4,-0.000654974,0,-179.16
0.12,10.4601,3.36556,0.0293753,0.48,4,-0.000990853,0,-178.791
0.14,10.471,3.36556,0.040258,0.56,4,-0.00168273,0,-178.354
0.16,10.4819,3.36556,0.0512441,0.64,4,-0.00239631,0,-177.85
0.18,10.4961,3.36556,0.0654267,0.72,4,-0.00378096,0,-177.279
0.2,10.5109,3.36556,0.0802441,0.8,4,-0.00539766,0,-176.641
0.22,10.5278,3.36556,0.0970674,0.88,4,-0.00774758,0,-175.935
0.24,10.5463,3.36555,0.11555,0.96,4,-0.0109392,0,-175.163
0.26,10.5662,3.36555,0.135457,1.04,4,-0.0148552,0,-174.323
0.28,10.5876,3.36554,0.156944,1.12,4,-0.0196111,0,-173.416
0.3,10.6108,3.36553,0.180069,1.2,4,-0.0254,0,-172.442
0.32,10.6355,3.36552,0.204845,1.28,4,-0.0326694,0,-171.4
0.34,10.662,3.3655,0.231263,1.36,4,-0.0413153,0,-170.292
0.36,10.69,3.36548,0.2593,1.44,4,-0.0514,0,-169.116
0.38,10.7196,3.36545,0.28893,1.52,4,-0.0632234,0,-167.873
0.4,10.7508,3.36541,0.320122,1.6,4,-0.0770217,0,-166.563
0.42,10.7835,3.36536,0.352845,1.68,4,-0.0926123,0,-165.186
0.44,10.818,3.3653,0.387276,1.76,4,-0.110606,0,-163.741
0.46,10.854,3.36523,0.423286,1.84,4,-0.131109,0,-162.23
0.48,10.8915,3.36513,0.460842,1.92,4,-0.153974,0,-160.651
0.5,10.9308,3.36502,0.50007,2,4,-0.179892,0,-159.005
0.52,10.9716,3.36488,0.540861,2.08,4,-0.208772,0,-157.292
0.54,11.0139,3.36472,0.583211,2.16,4,-0.240655,0,-155.511
0.56,11.058,3.36452,0.627255,2.24,4,-0.276453,0,-153.664
0.58,11.1036,3.36428,0.67286,2.32,4,-0.31568,0,-151.749
0.6,11.1507,3.364,0.720051,2.4,4,-0.358837,0,-149.767
0.62,11.1995,3.36368,0.768841,2.48,4,-0.406159,0,-147.718
0.64,11.2499,3.3633,0.819237,2.56,4,-0.457681,0,-145.602
0.66,11.3019,3.36286,0.8712,2.63191,0.838738,-0.513804,0,-143.418
0.68,11.3547,3.36236,0.923961,2.64,0,-0.57354,0,-141.168
0.7,11.4074,3.3618,0.976761,2.64,0,-0.635904,0,-138.85
0.72,11.4602,3.36118,1.02956,2.64,0,-0.700779,0,-136.465
0.74,11.513,3.36051,1.08236,2.64,0,-0.767721,0,-134.013
0.76,11.5658,3.35977,1.13516,2.64,0,-0.836351,0,-131.493
0.78,11.6186,3.35897,1.18796,2.64,0,-0.906235,0,-128.907
0.8,11.6714,3.3581,1.24076,2.64,0,-0.976832,0,-126.253
0.82,11.7242,3.35717,1.29356,2.64,0,-1.04743,0,-123.532
0.84,11.777,3.35617,1.34636,2.64,0,-1.11726,0,-120.744
0.86,11.8298,3.35511,1.39916,2.64,0,-1.18539,0,-117.888
0.88,11.8826,3.35399,1.45196,2.64,0,-1.25086,0,-114.966
0.9,11.9354,3.3528,1.50476,2.64,0,-1.31258,0,-111.976
0.92,11.9882,3.35157,1.55756,2.64,0,-1.3691,0,-108.919
0.94,12.0409,3.35028,1.61036,2.64,0,-1.4199,0,-105.795
0.96,12.0937,3.34895,1.66316,2.64,0,-1.46359,0,-102.604
0.98,12.1465,3.34759,1.71596,2.64,0,-1.49917,0,-99.3455
1,12.1993,3.34619,1.76876,2.64,0,-1.52575,0,-96.0199
1.02,12.2521,3.34478,1.82156,2.64,0,-1.54267,0,-92.6607
1.04,12.3048,3.34335,1.87436,2.64,0,-1.54945,0,-89.3015
1.06,12.3576,3.34192,1.92716,2.64,0,-1.54583,0,-85.9423
1.08,12.4104,3.34051,1.97996,2.64,0,-1.53168,0,-82.5889
1.1,12.4632,3.33911,2.03276,2.64,0,-1.50755,0,-79.2913
1.12,12.516,3.33773,2.08556,2.64,0,-1.47407,0,-76.0608
1.14,12.5688,3.33639,2.13836,2.64,0,-1.43226,0,-72.8975
1.16,12.6215,3.3351,2.19116,2.64,0,-1.38311,0,-69.8013
1.18,12.6743,3.33384,2.24396,2.64,0,-1.32797,0,-66.7724
1.2,12.7271,3.33265,2.29676,2.64,0,-1.26738,0,-63.8107
1.22,12.7799,3.33151,2.34956,2.64,0,-1.20277,0,-60.9161
1.24,12.8327,3.33043,2.40236,2.64,0,-1.13524,0,-58.0887
1.26,12.8855,3.32942,2.45516,2.64,0,-1.06579,0,-55.3285
1.28,12.9383,3.32847,2.50796,2.64,0,-0.995324,0,-52.6355
1.3,12.9911,3.32758,2.56076,2.64,0,-0.92466,0,-50.0097
1.32,13.0439,3.32676,2.61356,2.64,0,-0.854523,0,-47.451
1.34,13.0967,3.32601,2.66636,2.64,0,-0.785488,0,-44.9596
1.36,13.1494,3.32531,2.71916,2.64,0,-0.718042,0,-42.5353
1.38,13.2022,3.32468,2.77196,2.64,0,-0.652606,0,-40.1782
1.4,13.255,3.32411,2.82476,2.64,0,-0.589605,0,-37.8883
1.42,13.3078,3.3236,2.87754,2.63666,-2.00745,-0.529136,0,-35.6655
1.44,13.36,3.32314,2.92976,2.57588,-4,-0.472011,0,-33.51
1.46,13.4108,3.32275,2.98048,2.49588,-4,-0.419432,0,-31.4216
1.48,13.4599,3.32241,3.0296,2.41588,-4,-0.371043,0,-29.4005
1.5,13.5074,3.32212,3.07713,2.33588,-4,-0.326869,0,-27.4465
1.52,13.5533,3.32187,3.12307,2.25588,-4,-0.286667,0,-25.5597
1.54,13.5976,3.32167,3.16734,2.17588,-4,-0.250212,0,-23.74
1.56,13.6403,3.32149,3.21004,2.09588,-4,-0.217376,0,-21.9876
1.58,13.6815,3.32135,3.25123,2.01588,-4,-0.187554,0,-20.3024
1.6,13.7209,3.32123,3.29066,1.93588,-4,-0.16109,0,-18.6843
1.62,13.7589,3.32113,3.32865,1.85588,-4,-0.137356,0,-17.1334
1.64,13.7951,3.32105,3.36488,1.77588,-4,-0.116337,0,-15.6497
1.66,13.8299,3.32098,3.39964,1.69588,-4,-0.0977303,0,-14.2332
1.68,13.863,3.32093,3.43275,1.61588,-4,-0.0814708,0,-12.8838
1.7,13.8945,3.32089,3.4642,1.53588,-4,-0.0672372,0,-11.6017
1.72,13.9244,3.32086,3.4941,1.45588,-4,-0.0549593,0,-10.3867
1.74,13.9527,3.32083,3.52242,1.37588,-4,-0.044444,0,-9.23894
1.76,13.9794,3.32082,3.54914,1.29588,-4,-0.0353735,0,-8.15835
1.78,14.0045,3.3208,3.57423,1.21588,-4,-0.0277965,0,-7.14493
1.8,14.028,3.32079,3.5977,1.13588,-4,-0.0215977,0,-6.1987
1.82,14.0498,3.32078,3.61955,1.05588,-4,-0.0164784,0,-5.31966
1.84,14.0701,3.32078,3.63986,0.975876,-4,-0.0122211,0,-4.50779
1.86,14.0891,3.32078,3.65879,0.895876,-4,-0.00867941,0,-3.76312
1.88,14.1059,3.32077,3.67562,0.815876,-4,-0.00632949,0,-3.08562
1.9,14.1212,3.32077,3.69096,0.735876,-4,-0.00446467,0,-2.47531
1.92,14.1354,3.32077,3.70514,0.655876,-4,-0.0029792,0,-1.93219
1.94,14.147,3.32077,3.71678,0.575876,-4,-0.00204291,0,-1.45625
1.96,14.1579,3.32077,3.72766,0.495876,-4,-0.00127043,0,-1.04749
1.98,14.166,3.32077,3.73577,0.415876,-4,-0.000777811,0,-0.705915
2,14.1705,3.32077,3.74027,0.335876,-4,-0.000646816,0,-0.431526
2.02,14.175,3.32077,3.74478,0.255876,-4,-0.000515822,0,-0.224321
2.04,14.1796,3.32077,3.74929,0.175876,-4,-0.000384827,0,-0.0842996
2.06,14.1841,3.32077,3.7538,0.0958756,-4,-0.000253832,0,-0.0114624
2.08,14.1886,3.32077,3.75831,0.0158756,-4,-0.000122837,0,0
