"time","x","y","position","velocity","acceleration","heading","curvature","rotation"
0,6.19084,2.28646,0,0,1.5,180,0,180
0.02,6.18808,2.28646,0.00276043,0.03,1.5,180,0,180
0.04,6.18532,2.28646,0.00552087,0.06,1.5,179.999,0,180
0.06,6.18256,2.28646,0.0082813,0.09,1.5,179.999,0,180
0.08,6.1798,2.28646,0.0110417,0.12,1.5,179.998,0,180
0.1,6.17704,2.28646,0.0138022,0.15,1.5,179.998,0,180
0.12,6.17428,2.28646,0.0165626,0.18,1.5,179.997,0,180
0.14,6.17152,2.28646,0.019323,0.21,1.5,179.997,0,180
0.16,6.16876,2.28646,0.0220835,0.24,1.5,179.996,0,180
0.18,6.166,2.28646,0.0248439,0.27,1.5,179.996,0,180
0.2,6.16012,2.28646,0.0307218,0.3,1.5,179.994,0,180
0.22,6.15345,2.28646,0.037386,0.33,1.5,179.992,0,180
0.24,6.14679,2.28646,0.0440503,0.36,1.5,179.99,0,180
0.26,6.14013,2.28646,0.0507146,0.39,1.5,179.988,0,180
0.28,6.13147,2.28647,0.0593738,0.42,1.5,179.983,0,180
0.3,6.12278,2.28647,0.0680588,0.45,1.5,179.979,0,180
0.32,6.11399,2.28647,0.0768451,0.48,1.5,179.974,0,180
0.34,6.10369,2.28648,0.0871472,0.51,1.5,179.966,0,180
0.36,6.09339,2.28649,0.0974493,0.54,1.5,179.959,0,180
0.38,6.08226,2.28649,0.108582,0.57,1.5,179.95,0,180
0.4,6.07056,2.28651,0.120276,0.6,1.5,179.939,0,180
0.42,6.05834,2.28652,0.132496,0.63,1.5,179.927,0,180
0.44,6.04541,2.28654,0.14543,0.66,1.5,179.913,0,180
0.46,6.03195,2.28656,0.158886,0.69,1.5,179.897,0,180
0.48,6.01789,2.28659,0.172951,0.72,1.5,179.879,0,180
0.5,6.00314,2.28662,0.187702,0.75,1.5,179.859,0,180
0.52,5.98803,2.28666,0.202813,0.78,1.5,179.838,0,180
0.54,5.97196,2.28671,0.218877,0.81,1.5,179.811,0,180
0.56,5.95551,2.28677,0.23533,0.84,1.5,179.783,0,180
0.58,5.9385,2.28684,0.252341,0.87,1.5,179.753,0,180
0.6,5.9207,2.28692,0.27014,0.9,1.5,179.718,0,180
0.62,5.90241,2.28702,0.288427,0.93,1.5,179.681,0,180
0.64,5.8836,2.28713,0.307244,0.96,1.5,179.64,0,180
0.66,5.86408,2.28726,0.32676,0.99,1.5,179.596,0,180
0.68,5.84394,2.28741,0.346906,1.02,1.5,179.548,0,180
0.7,5.82323,2.28758,0.367609,1.05,1.5,179.495,0,180
0.72,5.80196,2.28778,0.388888,1.08,1.5,179.439,0,180
0.74,5.78009,2.288,0.410755,1.11,1.5,179.378,0,180
0.76,5.75763,2.28825,0.433219,1.14,1.5,179.313,0,180
0.78,5.73454,2.28855,0.456312,1.17,1.5,179.241,0,180
0.8,5.71082,2.28888,0.480031,1.2,1.5,179.166,0,180
0.82,5.68651,2.28925,0.50434,1.23,1.5,179.085,0,180
0.84,5.66161,2.28967,0.529242,1.26,1.5,178.998,0,180
0.86,5.63612,2.29014,0.55474,1.29,1.5,178.906,0,180
0.88,5.61003,2.29065,0.580832,1.32,1.5,178.809,0,180
0.9,5.58335,2.29123,0.60752,1.35,1.5,178.707,0,180
0.92,5.55608,2.29187,0.634802,1.38,1.5,178.6,0,180
0.94,5.52817,2.29258,0.66272,1.41,1.5,178.487,0,180
0.96,5.49966,2.29336,0.691239,1.44,1.5,178.37,0,180
0.98,5.47056,2.29422,0.720351,1.47,1.24468,178.25,0,180
1,5.44093,2.29516,0.75,1.49364,0.37386,178.128,0,180
1.02,5.411,2.29617,0.779946,1.5,0,178.005,0,180
1.04,5.38102,2.29724,0.809946,1.5,0,177.885,0,180
1.06,5.35104,2.29838,0.839946,1.5,0,177.768,0,180
1.08,5.32106,2.29958,0.869946,1.5,0,177.659,0,180
1.1,5.29109,2.30083,0.899946,1.5,0,177.558,0,180
1.12,5.26112,2.30214,0.929946,1.5,0,177.466,0,180
1.14,5.23115,2.30348,0.959946,1.5,0,177.385,0,180
1.16,5.20118,2.30487,0.989946,1.5,0,177.317,0,180
1.18,5.17121,2.30629,1.01995,1.5,0,177.265,0,180
1.2,5.14125,2.30773,1.04995,1.5,0,177.229,0,180
1.22,5.11128,2.30919,1.07995,1.5,0,177.211,0,180
1.24,5.08132,2.31065,1.10995,1.5,0,177.21,0,180
1.26,5.05135,2.3121,1.13995,1.5,0,177.227,0,180
1.28,5.02139,2.31355,1.16995,1.5,0,177.261,0,180
1.3,4.99142,2.31497,1.19995,1.5,0,177.312,0,180
1.32,4.96146,2.31636,1.22995,1.5,0,177.377,0,180
1.34,4.93149,2.31771,1.25995,1.5,0,177.456,0,180
1.36,4.90151,2.31902,1.28995,1.5,0,177.546,0,180
1.38,4.87154,2.32028,1.31995,1.5,0,177.648,0,180
1.4,4.84157,2.32148,1.34995,1.5,0,177.757,0,180
1.42,4.81159,2.32262,1.37995,1.5,0,177.873,0,180
1.44,4.78161,2.32371,1.40995,1.5,-0.403346,177.992,0,180
1.46,4.7517,2.32473,1.43987,1.49074,-1.27869,178.115,0,180
1.48,4.72214,2.32567,1.46944,1.46451,-1.5,178.237,0,180
1.5,4.69314,2.32653,1.49846,1.43451,-1.5,178.357,0,180
1.52,4.66478,2.32731,1.52683,1.40451,-1.5,178.473,0,180
1.54,4.63702,2.32803,1.5546,1.37451,-1.5,178.585,0,180
1.56,4.60985,2.32867,1.58178,1.34451,-1.5,178.692,0,180
1.58,4.58327,2.32925,1.60836,1.31451,-1.5,178.795,0,180
1.6,4.55729,2.32978,1.63435,1.28451,-1.5,178.892,0,180
1.62,4.53191,2.33025,1.65973,1.25451,-1.5,178.984,0,180
1.64,4.50712,2.33067,1.68452,1.22451,-1.5,179.07,0,180
1.66,4.48293,2.33104,1.70872,1.19451,-1.5,179.151,0,180
1.68,4.45934,2.33138,1.73232,1.16451,-1.5,179.228,0,180
1.7,4.43633,2.33167,1.75533,1.13451,-1.5,179.299,0,180
1.72,4.4139,2.33193,1.77775,1.10451,-1.5,179.365,0,180
1.74,4.39216,2.33216,1.79949,1.07451,-1.5,179.426,0,180
1.76,4.37102,2.33236,1.82064,1.04451,-1.5,179.483,0,180
1.78,4.35045,2.33254,1.84121,1.01451,-1.5,179.536,0,180
1.8,4.33044,2.33269,1.86121,0.984508,-1.5,179.584,0,180
1.82,4.31098,2.33283,1.88068,0.954508,-1.5,179.63,0,180
1.84,4.29226,2.33294,1.8994,0.924508,-1.5,179.67,0,180
1.86,4.27412,2.33304,1.91753,0.894508,-1.5,179.707,0,180
1.88,4.25649,2.33312,1.93517,0.864508,-1.5,179.742,0,180
1.9,4.23948,2.3332,1.95218,0.834508,-1.5,179.774,0,180
1.92,4.22319,2.33326,1.96847,0.804508,-1.5,179.801,0,180
1.94,4.20731,2.33331,1.98435,0.774508,-1.5,179.827,0,180
1.96,4.19219,2.33335,1.99946,0.744508,-1.5,179.85,0,180
1.98,4.17764,2.33338,2.01402,0.714508,-1.5,179.871,0,180
2,4.16357,2.33342,2.02809,0.684508,-1.5,179.89,0,180
2.02,4.15032,2.33344,2.04134,0.654508,-1.5,179.906,0,180
2.04,4.13739,2.33346,2.05427,0.624508,-1.5,179.92,0,180
2.06,4.12539,2.33347,2.06626,0.594508,-1.5,179.932,0,180
2.08,4.1137,2.33348,2.07796,0.564508,-1.5,179.944,0,180
2.1,4.10282,2.33349,2.08884,0.534508,-1.5,179.953,0,180
2.12,4.09252,2.3335,2.09914,0.504508,-1.5,179.962,0,180
2.14,4.08241,2.33351,2.10925,0.474508,-1.5,179.97,0,180
2.16,4.07373,2.33351,2.11793,0.444508,-1.5,179.975,0,180
2.18,4.06504,2.33352,2.12662,0.414508,-1.5,179.98,0,180
2.2,4.05675,2.33352,2.1349,0.384508,-1.5,179.984,0,180
2.22,4.05009,2.33352,2.14157,0.354508,-1.5,179.987,0,180
2.24,4.04343,2.33352,2.14823,0.324508,-1.5,179.989,0,180
2.26,4.03676,2.33352,2.1549,0.294508,-1.5,179.992,0,180
2.28,4.0316,2.33352,2.16006,0.264508,-1.5,179.994,0,180
2.3,4.02884,2.33352,2.16282,0.234508,-1.5,179.995,0,180
2.32,4.02608,2.33352,2.16558,0.204508,-1.5,179.995,0,180
2.34,4.02332,2.33352,2.16834,0.174508,-1.5,179.996,0,180
2.36,4.02056,2.33352,2.1711,0.144508,-1.5,179.996,0,180
2.38,4.0178,2.33352,2.17386,0.114508,-1.5,179.997,0,180
2.4,4.01504,2.33352,2.17662,0.0845077,-1.5,179.997,0,180
2.42,4.01227,2.33353,2.17938,0.0545077,-1.5,179.998,0,180
2.44,4.00951,2.33353,2.18214,0.0245077,-1.5,179.998,0,180
