"time","x","y","position","velocity","acceleration","heading","curvature","rotation"
0,7.07608,0.960578,0,0,4,180,0,-1.40334e-14
0.02,7.07157,0.960578,0.00450777,0.08,4,-179.998,0,0.0642201
0.04,7.06706,0.960577,0.00901554,0.16,4,-179.995,0,0.25688
0.06,7.06256,0.960577,0.0135233,0.24,4,-179.993,0,0.57798
0.08,7.05805,0.960576,0.0180311,0.32,4,-179.991,0,1.02752
0.1,7.05354,0.960576,0.0225389,0.4,4,-179.988,0,1.6055
0.12,7.0467,0.960573,0.0293753,0.48,4,-179.982,0,2.31192
0.14,7.03582,0.960568,0.040258,0.56,4,-179.97,0,3.14678
0.16,7.02484,0.960562,0.0512441,0.64,4,-179.956,0,4.11008
0.18,7.01065,0.960547,0.0654267,0.72,4,-179.931,0,5.20182
0.2,6.99584,0.960527,0.0802441,0.8,4,-179.901,0,6.42201
0.22,6.97901,0.960495,0.0970674,0.88,4,-179.861,0,7.77063
0.24,6.96053,0.960438,0.11555,0.96,4,-179.804,0,9.24769
0.26,6.94062,0.960356,0.135457,1.04,4,-179.735,0,10.8532
0.28,6.91914,0.960241,0.156944,1.12,4,-179.649,0,12.5871
0.3,6.89601,0.960082,0.180069,1.2,3.81335,-179.546,0,14.4495
0.32,6.87126,0.959865,0.20482,1.27738,1.78868,-179.422,0,16.4403
0.34,6.84536,0.959572,0.230726,1.3125,0,-179.276,0,18.5596
0.36,6.81911,0.959196,0.256976,1.3125,0,-179.11,0,20.8073
0.38,6.79286,0.958744,0.283226,1.3125,0,-178.93,0,23.1834
0.4,6.76662,0.958212,0.309476,1.3125,0,-178.735,0,25.688
0.42,6.74038,0.957591,0.335726,1.3125,0,-178.526,0,28.321
0.44,6.71414,0.956869,0.361976,1.3125,0,-178.301,0,31.0825
0.46,6.6879,0.956027,0.388226,1.3125,0,-178.061,0,33.9724
0.48,6.66167,0.955076,0.414476,1.3125,0,-177.807,0,36.9907
0.5,6.63544,0.954009,0.440726,1.3125,0,-177.54,0,40.1375
0.52,6.60922,0.95282,0.466976,1.3125,0,-177.262,0,43.4128
0.54,6.583,0.951502,0.493226,1.3125,0,-176.972,0,46.8164
0.56,6.55679,0.95005,0.519476,1.3125,0,-176.673,0,50.3485
0.58,6.53059,0.94846,0.545726,1.3125,0,-176.367,0,54.0091
0.6,6.5044,0.946729,0.571976,1.3125,0,-176.055,0,57.798
0.62,6.47821,0.944854,0.598226,1.3125,0,-175.741,0,61.7155
0.64,6.45204,0.942834,0.624476,1.3125,0,-175.429,0,65.7613
0.66,6.42588,0.94067,0.650726,1.3125,0,-175.121,0,69.9356
0.68,6.39974,0.938335,0.676976,1.3125,0,-174.828,0,74.2384
0.7,6.3736,0.935916,0.703226,1.3125,0,-174.543,0,78.6696
0.72,6.34747,0.933347,0.729476,1.3125,0,-174.284,0,83.2292
0.74,6.32136,0.930688,0.755726,1.3125,0,-174.044,0,87.9173
0.76,6.29526,0.927907,0.781976,1.3125,0,-173.84,0,92.6929
0.78,6.26916,0.925056,0.808226,1.3125,0,-173.667,0,97.3644
0.8,6.24308,0.922126,0.834476,1.3125,0,-173.536,0,101.908
0.82,6.21699,0.919152,0.860726,1.3125,0,-173.449,0,106.322
0.84,6.19092,0.916144,0.886976,1.3125,0,-173.403,0,110.608
0.86,6.16484,0.913132,0.913226,1.3125,0,-173.414,0,114.766
0.88,6.13876,0.91012,0.939476,1.3125,0,-173.455,0,118.796
0.9,6.11268,0.907165,0.965726,1.3125,0,-173.565,0,122.696
0.92,6.0866,0.904229,0.991976,1.3125,0,-173.692,0,126.469
0.94,6.0605,0.901417,1.01823,1.3125,0,-173.886,0,130.113
0.96,6.03439,0.898648,1.04448,1.3125,0,-174.093,0,133.629
0.98,6.00827,0.896027,1.07073,1.3125,0,-174.344,0,137.016
1,5.98215,0.893485,1.09698,1.3125,0,-174.608,0,140.274
1.02,5.95601,0.891097,1.12323,1.3125,0,-174.896,0,143.405
1.04,5.92986,0.888797,1.14948,1.3125,0,-175.193,0,146.406
1.06,5.90369,0.886669,1.17573,1.3125,0,-175.502,0,149.28
1.08,5.87752,0.884683,1.20198,1.3125,0,-175.815,0,152.025
1.1,5.85133,0.882839,1.22823,1.3125,0,-176.129,0,154.641
1.12,5.82514,0.881136,1.25448,1.3125,0,-176.439,0,157.129
1.14,5.79894,0.879573,1.28073,1.3125,0,-176.745,0,159.489
1.16,5.77273,0.878147,1.30698,1.3125,0,-177.042,0,161.72
1.18,5.74651,0.87686,1.33323,1.3125,0,-177.329,0,163.823
1.2,5.72028,0.875707,1.35948,1.3125,0,-177.605,0,165.797
1.22,5.69405,0.874676,1.38573,1.3125,0,-177.867,0,167.643
1.24,5.66782,0.873759,1.41198,1.3125,0,-178.117,0,169.36
1.26,5.64158,0.87295,1.43823,1.3125,0,-178.353,0,170.949
1.28,5.61534,0.872243,1.46448,1.3125,0,-178.576,0,172.41
1.3,5.5891,0.871632,1.49073,1.3125,0,-178.784,0,173.742
1.32,5.56285,0.871123,1.51698,1.3125,0,-178.974,0,174.946
1.34,5.53661,0.870699,1.54323,1.3125,0,-179.149,0,176.021
1.36,5.51036,0.870346,1.56948,1.3125,0,-179.31,0,176.968
1.38,5.48411,0.87006,1.59573,1.3125,0,-179.455,0,177.786
1.4,5.45786,0.869836,1.62198,1.3125,0,-179.585,0,178.476
1.42,5.43161,0.869677,1.64823,1.3125,0,-179.696,0,179.037
1.44,5.40536,0.869561,1.67448,1.3125,0,-179.791,0,179.471
1.46,5.37911,0.869482,1.70073,1.3125,0,-179.87,0,179.775
1.48,5.35286,0.869433,1.72698,1.3125,0,-179.933,0,179.951
1.5,5.32661,0.869415,1.75323,1.3125,0.0990145,-179.972,0,180
1.52,5.30032,0.869408,1.77952,1.31701,4,-179.993,0,180
1.54,5.27315,0.869408,1.80669,1.39701,4,179.99,0,180
1.56,5.24437,0.869419,1.83547,1.47701,4,179.957,0,180
1.58,5.21401,0.869465,1.86583,1.55701,4,179.88,0,180
1.6,5.1821,0.869559,1.89774,1.63701,4,179.767,0,180
1.62,5.14865,0.869727,1.93119,1.71701,4,179.613,0,180
1.64,5.11342,0.870045,1.96642,1.79701,4,179.398,0,180
1.66,5.07674,0.870506,2.0031,1.87701,4,179.138,0,180
1.68,5.03837,0.871184,2.04148,1.95701,4,178.823,0,180
1.7,4.9985,0.872113,2.08136,2.03701,4,178.46,0,180
1.72,4.95693,0.87339,2.12295,2.11701,4,178.063,0,180
1.74,4.91384,0.875002,2.16607,2.19701,4,177.685,0,180
1.76,4.86918,0.87693,2.21077,2.27701,4,177.377,0,180
1.78,4.82288,0.87912,2.25713,2.35701,4,177.244,0,180
1.8,4.77498,0.8814,2.30508,2.43701,4,177.341,0,180
1.82,4.72548,0.883574,2.35462,2.51701,4,177.654,0,180
1.84,4.67438,0.885488,2.40576,2.59701,4,178.102,0,180
1.86,4.62167,0.886998,2.45849,2.67701,4,178.602,0,180
1.88,4.56736,0.888091,2.51281,2.75701,4,179.071,0,180
1.9,4.51142,0.8888,2.56876,2.83701,4,179.469,0,180
1.92,4.45386,0.889166,2.62632,2.91701,4,179.764,0,180
1.94,4.39475,0.889307,2.68543,2.99241,0.892654,179.949,0,180
1.96,4.33478,0.889332,2.7454,3,0,179.965,0,180
1.98,4.27478,0.889508,2.8054,3,0,179.636,0,180
2,4.21479,0.890194,2.8654,3,0,178.941,0,180
2.02,4.15481,0.891862,2.9254,3,0,177.873,0,180
2.04,4.09488,0.894756,2.9854,3,0,176.502,0,180
2.06,4.03505,0.899234,3.0454,3,0,174.908,0,180
2.08,3.97538,0.905412,3.1054,3,0,173.343,0,180
2.1,3.91586,0.913028,3.1654,3,0,172.254,0,180
2.12,3.85644,0.921331,3.2254,3,0,172.008,0,180
2.14,3.79699,0.929423,3.2854,3,0,172.709,0,180
2.16,3.73739,0.936339,3.3454,3,0,174.119,0,180
2.18,3.67763,0.941662,3.4054,3,0,175.739,0,180
2.2,3.61774,0.945314,3.4654,3,0,177.241,0,180
2.22,3.55779,0.947515,3.5254,3,0,178.455,0,180
2.24,3.4978,0.94866,3.5854,3,0.631481,179.348,0,180
2.26,3.43743,0.949029,3.64576,3.05148,3.37523,179.858,0,180
2.28,3.37601,0.949092,3.70719,3.05885,-4,179.946,0,180
2.3,3.31566,0.949307,3.76754,2.97885,-4,179.573,0,180
2.32,3.25689,0.950105,3.82631,2.89885,-4,178.808,0,180
2.34,3.19972,0.951798,3.88351,2.81885,-4,177.714,0,180
2.36,3.14421,0.954625,3.93909,2.73885,-4,176.338,0,180
2.38,3.09042,0.958803,3.99305,2.65885,-4,174.726,0,180
2.4,3.03836,0.964452,4.04542,2.57885,-4,172.957,0,180
2.42,2.98807,0.971408,4.09619,2.49885,-4,171.163,0,180
2.44,2.93959,0.979712,4.14537,2.41885,-4,169.505,0,180
2.46,2.89289,0.988896,4.19297,2.33885,-4,168.134,0,180
2.48,2.84799,0.99875,4.23894,2.25885,-4,167.287,0,180
2.5,2.80477,1.00865,4.28328,2.17885,-4,167,0,180
2.52,2.76308,1.01823,4.32605,2.09885,-4,167.24,0,180
2.54,2.72283,1.0271,4.36728,2.01885,-4,167.966,0,180
2.56,2.68411,1.03496,4.40679,1.93885,-4,169.018,0,180
2.58,2.64669,1.04192,4.44485,1.85885,-4,170.217,0,180
2.6,2.61086,1.0476,4.48113,1.77885,-4,171.488,0,180
2.62,2.57639,1.05238,4.51593,1.69885,-4,172.72,0,180
2.64,2.54342,1.05633,4.54913,1.61885,-4,173.873,0,180
2.66,2.51206,1.05931,4.58063,1.53885,-4,174.895,0,180
2.68,2.48222,1.06177,4.61058,1.45885,-4,175.813,0,180
2.7,2.4539,1.06363,4.63896,1.37885,-4,176.602,0,180
2.72,2.42717,1.06504,4.66573,1.29885,-4,177.277,0,180
2.74,2.40204,1.06612,4.69088,1.21885,-4,177.854,0,180
2.76,2.37853,1.06688,4.71441,1.13885,-4,178.325,0,180
2.78,2.35661,1.06745,4.73633,1.05885,-4,178.722,0,180
2.8,2.33623,1.06787,4.75672,0.978849,-4,179.048,0,180
2.82,2.31722,1.06812,4.77573,0.898849,-4,179.301,0,180
2.84,2.30039,1.06829,4.79256,0.818849,-4,179.492,0,180
2.86,2.28495,1.06841,4.808,0.738849,-4,179.646,0,180
2.88,2.27077,1.06849,4.82218,0.658849,-4,179.766,0,180
2.9,2.25901,1.06853,4.83394,0.578849,-4,179.836,0,180
2.92,2.24813,1.06855,4.84483,0.498849,-4,179.887,0,180
2.94,2.23979,1.06857,4.85316,0.418849,-4,179.924,0,180
2.96,2.23528,1.06857,4.85767,0.338849,-4,179.937,0,180
2.98,2.23077,1.06857,4.86218,0.258849,-4,179.951,0,180
3,2.22626,1.06858,4.86669,0.178849,-4,179.964,0,180
3.02,2.22176,1.06858,4.8712,0.0988494,-4,179.978,0,180
3.04,2.21725,1.06858,4.8757,0.0188494,-4,179.991,0,180
