"time","x","y","position","velocity","acceleration","heading","curvature","rotation"
0,14.6987,3.8987,0,0,4,180,0,0
0.02,14.6942,3.8987,0.00450777,0.08,4,179.964,0,0
0.04,14.6897,3.89871,0.00901554,0.16,4,179.928,0,0
0.06,14.6851,3.89871,0.0135233,0.24,4,179.892,0,0
0.08,14.6806,3.89872,0.0180311,0.32,4,179.856,0,0
0.1,14.6761,3.89873,0.0225389,0.4,4,179.82,0,0
0.12,14.6693,3.89876,0.0293753,0.48,4,179.711,0,0
0.14,14.6584,3.89885,0.040258,0.56,4,179.476,0,0
0.16,14.6474,3.89895,0.0512441,0.64,4,179.232,0,0
0.18,14.6332,3.89924,0.0654267,0.72,4,178.736,0,0
0.2,14.6184,3.89962,0.0802441,0.8,4,178.164,0,0
0.22,14.6016,3.90028,0.0970673,0.88,4,177.35,0,0
0.24,14.5832,3.90134,0.11555,0.96,4,176.264,0,0
0.26,14.5633,3.90286,0.135457,1.04,4,174.905,0,0
0.28,14.542,3.90505,0.156944,1.12,4,173.192,0,0
0.3,14.519,3.90817,0.180069,1.2,4,171.037,0,0
0.32,14.4947,3.91259,0.204846,1.28,4,168.345,0,0
0.34,14.4691,3.919,0.231264,1.36,4,164.955,0,0
0.36,14.4423,3.92719,0.2593,1.44,4,160.986,0,0
0.38,14.4147,3.93799,0.28893,1.52,4,156.33,0,0
0.4,14.3868,3.95181,0.32012,1.6,4,151.05,0,0
0.42,14.3587,3.96862,0.352842,1.68,4,145.268,0,0
0.44,14.3318,3.99003,0.387278,1.76,4,139.238,0,0
0.46,14.3058,4.01487,0.423284,1.84,4,133.279,0,0
0.48,14.2813,4.04326,0.460845,1.92,4,127.601,0,0
0.5,14.2589,4.07544,0.500068,2,4,122.584,0,0
0.52,14.2382,4.11054,0.540863,2.08,4,118.201,0,0
0.54,14.2193,4.14844,0.583207,2.16,4,114.554,0,0
0.56,14.2021,4.189,0.627253,2.24,4,111.662,0,0
0.58,14.1862,4.23174,0.67286,2.32,4,109.397,0,0
0.6,14.1713,4.2765,0.720052,2.4,4,107.706,0,0
0.62,14.1569,4.32313,0.768842,2.48,4,106.559,0,0
0.64,14.1428,4.37152,0.819238,2.56,4,105.978,0,0
0.66,14.1286,4.42152,0.87124,2.64,4,105.976,0,0
0.68,14.1136,4.47299,0.924843,2.72,4,106.574,0,0
0.7,14.0973,4.52573,0.98004,2.8,4,107.908,0,0
0.72,14.0789,4.57942,1.03682,2.88,4,110.146,0,0
0.74,14.0573,4.63366,1.09522,2.96,4,113.542,0,0
0.76,14.031,4.68763,1.15523,3.04,4,118.516,0,0
0.78,13.9987,4.73997,1.21681,3.12,4,125.479,0,0
0.8,13.958,4.78821,1.28003,3.2,4,134.871,0,0
0.82,13.9083,4.82955,1.3448,3.28,4,146.098,0,0
0.84,13.8501,4.86044,1.4108,3.28926,-4,157.472,0,0
0.86,13.7883,4.88024,1.4758,3.20926,-4,166.851,0,0
0.88,13.7259,4.89075,1.53917,3.12926,-4,173.441,0,0
0.9,13.6643,4.89541,1.60098,3.04926,-4,177.615,0,0
0.92,13.6041,4.89666,1.66114,2.96926,-4,179.614,0,0
0.94,13.5455,4.89679,1.71973,2.88926,-4,179.898,0,0
0.96,13.4885,4.89716,1.77674,2.80926,-4,179.272,0,0
0.98,13.4332,4.89837,1.8321,2.72926,-4,178.123,0,0
1,13.3795,4.90086,1.88588,2.64926,-4,176.526,0,0
1.02,13.3274,4.90485,1.93805,2.56926,-4,174.573,0,0
1.04,13.2772,4.91062,1.98864,2.48926,-4,172.379,0,0
1.06,13.2288,4.91803,2.03763,2.40926,-4,170.167,0,0
1.08,13.1822,4.92691,2.08503,2.32926,-4,168.219,0,0
1.1,13.1375,4.93683,2.13082,2.24926,-4,166.868,0,0
1.12,13.0946,4.9471,2.17496,2.16926,-4,166.376,0,0
1.14,13.0532,4.95706,2.21754,2.08926,-4,166.721,0,0
1.16,13.0132,4.96618,2.25858,2.00926,-4,167.752,0,0
1.18,12.9746,4.97401,2.29789,1.92926,-4,169.245,0,0
1.2,12.9374,4.98063,2.33576,1.84926,-4,170.903,0,0
1.22,12.9016,4.98573,2.37185,1.76926,-4,172.545,0,0
1.24,12.8673,4.98974,2.40646,1.68926,-4,174.058,0,0
1.26,12.8344,4.99278,2.43949,1.60926,-4,175.393,0,0
1.28,12.8032,4.99498,2.47079,1.52926,-4,176.524,0,0
1.3,12.7734,4.99654,2.50054,1.44926,-4,177.464,0,0
1.32,12.7453,4.99756,2.52871,1.36926,-4,178.212,0,0
1.34,12.7187,4.99825,2.55528,1.28926,-4,178.811,0,0
1.36,12.6938,4.99868,2.58024,1.20926,-4,179.277,0,0
1.38,12.6704,4.9989,2.60358,1.12926,-4,179.598,0,0
1.4,12.6487,4.999,2.62533,1.04926,-4,179.801,0,0
1.42,12.6284,4.99905,2.64558,0.969262,-3.28361,179.928,0,0
1.44,12.6097,4.99907,2.66427,0.889262,-0.340722,179.989,0,0
1.46,12.592,4.99907,2.682,0.88,0,179.974,0,0.0770641
1.48,12.5744,4.99909,2.6996,0.88,0,179.933,0,0.308256
1.5,12.5568,4.99912,2.7172,0.88,0,179.872,0,0.693577
1.52,12.5392,4.99917,2.7348,0.88,0,179.785,0,1.23302
1.54,12.5216,4.99925,2.7524,0.88,0,179.686,0,1.9266
1.56,12.504,4.99936,2.77,0.88,0,179.574,0,2.77431
1.58,12.4864,4.99951,2.7876,0.88,0,179.443,0,3.77614
1.6,12.4688,4.9997,2.8052,0.88,0,179.3,0,4.9321
1.62,12.4512,4.99994,2.8228,0.88,0,179.148,0,6.24219
1.64,12.4336,5.00023,2.8404,0.88,0,178.989,0,7.70641
1.66,12.416,5.00057,2.858,0.88,0,178.828,0,9.32475
1.68,12.3984,5.00095,2.8756,0.88,0,178.668,0,11.0972
1.7,12.3808,5.00138,2.8932,0.88,0,178.511,0,13.0238
1.72,12.3632,5.00187,2.9108,0.88,0,178.368,0,15.1046
1.74,12.3457,5.00239,2.9284,0.88,0,178.24,0,17.3394
1.76,12.3281,5.00294,2.946,0.88,0,178.128,0,19.7284
1.78,12.3105,5.00353,2.9636,0.88,0,178.074,0,22.2715
1.8,12.2929,5.00413,2.9812,0.88,0,178.059,0,24.9688
1.82,12.2753,5.00473,2.9988,0.88,0,178.081,0,27.8201
1.84,12.2577,5.0053,3.0164,0.88,0,178.162,0,30.8256
1.86,12.2401,5.00584,3.034,0.88,0,178.324,0,33.9853
1.88,12.2225,5.00633,3.0516,0.88,0,178.55,0,37.299
1.9,12.2049,5.00673,3.0692,0.88,0,178.858,0,40.7669
1.92,12.1873,5.00702,3.0868,0.88,0,179.253,0,44.3889
1.94,12.1697,5.0072,3.1044,0.88,0,179.715,0,48.0575
1.96,12.1521,5.00718,3.122,0.88,0,-179.742,0,51.5761
1.98,12.1345,5.00705,3.1396,0.88,0,-179.148,0,54.9406
2,12.1169,5.00669,3.1572,0.88,0,-178.512,0,58.151
2.02,12.0993,5.00608,3.1748,0.88,0,-177.835,0,61.2072
2.04,12.0818,5.00539,3.1924,0.88,0,-177.148,0,64.1094
2.06,12.0642,5.00438,3.21,0.88,0,-176.472,0,66.8574
2.08,12.0466,5.00313,3.2276,0.88,0,-175.805,0,69.4512
2.1,12.0291,5.00184,3.2452,0.88,0,-175.144,0,71.891
2.12,12.0116,5.00028,3.2628,0.88,0,-174.528,0,74.1766
2.14,11.994,4.99854,3.2804,0.88,0,-173.947,0,76.3081
2.16,11.9765,4.99661,3.298,0.88,0,-173.409,0,78.2854
2.18,11.9591,4.99449,3.3156,0.88,0,-172.925,0,80.1086
2.2,11.9416,4.99225,3.3332,0.88,0,-172.476,0,81.7777
2.22,11.9242,4.98989,3.3508,0.88,0,-172.068,0,83.2927
2.24,11.9068,4.98738,3.3684,0.88,0,-171.714,0,84.6535
2.26,11.8893,4.98479,3.386,0.88,0,-171.391,0,85.8602
2.28,11.872,4.98212,3.4036,0.88,0,-171.097,0,86.9128
2.3,11.8546,4.97935,3.4212,0.88,0,-170.852,0,87.8113
2.32,11.8372,4.97652,3.4388,0.88,0,-170.635,0,88.5556
2.34,11.8198,4.97364,3.4564,0.88,0,-170.443,0,89.1458
2.36,11.8025,4.97069,3.474,0.88,0,-170.293,0,89.5819
2.38,11.7851,4.9677,3.4916,0.88,0,-170.18,0,89.8638
2.4,11.7678,4.96468,3.5092,0.88,0.255175,-170.094,0,89.9916
2.42,11.7505,4.96164,3.5268,0.88,1.23726,-170.04,0,90
2.44,11.7328,4.95855,3.54472,0.903149,0.597078,-170.051,0,90
2.46,11.7149,4.95541,3.56289,0.92,0,-170.123,0,90.0761
2.48,11.6968,4.95225,3.58129,0.92,0,-170.271,0,90.3043
2.5,11.6786,4.94924,3.59969,0.92,0,-170.62,0,90.6847
2.52,11.6605,4.94631,3.61809,0.92,0,-171.041,0,91.2172
2.54,11.6423,4.94349,3.63649,0.92,0,-171.539,0,91.9019
2.56,11.6241,4.94083,3.65489,0.92,0,-172.142,0,92.7387
2.58,11.6058,4.93851,3.67329,0.92,0,-172.874,0,93.7277
2.6,11.5876,4.93636,3.69169,0.92,0,-173.663,0,94.8689
2.62,11.5693,4.9344,3.71009,0.92,0,-174.503,0,96.1622
2.64,11.5509,4.93273,3.72849,0.92,0,-175.42,0,97.6076
2.66,11.5326,4.93149,3.74689,0.92,0,-176.408,0,99.2052
2.68,11.5142,4.93054,3.76529,0.92,0,-177.435,0,100.955
2.7,11.4958,4.92983,3.78369,0.92,0,-178.487,0,102.857
2.72,11.4774,4.92952,3.80209,0.92,0,-179.567,0,104.911
2.74,11.459,4.92954,3.82049,0.92,0,179.346,0,107.117
2.76,11.4406,4.9299,3.83889,0.92,0,178.262,0,109.475
2.78,11.4223,4.93067,3.85729,0.92,0,177.204,0,111.986
2.8,11.4039,4.93178,3.87569,0.92,0,176.194,0,114.649
2.82,11.3855,4.93314,3.89409,0.92,0,175.232,0,117.463
2.84,11.3672,4.93474,3.91249,0.92,0,174.323,0,120.43
2.86,11.3489,4.93668,3.93089,0.92,0,173.518,0,123.55
2.88,11.3306,4.93889,3.94929,0.92,0,172.857,0,126.821
2.9,11.3124,4.94128,3.96769,0.92,0,172.323,0,130.244
2.92,11.2942,4.9438,3.98609,0.92,0,171.924,0,133.82
2.94,11.276,4.94643,4.00449,0.92,0,171.744,0,137.548
2.96,11.2578,4.94907,4.02289,0.92,0,171.729,0,141.427
2.98,11.2395,4.95171,4.04129,0.92,0,171.884,0,145.458
3,11.2213,4.95426,4.05969,0.92,0,172.287,0,149.455
3.02,11.2031,4.95662,4.07809,0.92,0,172.954,0,153.301
3.04,11.1848,4.95877,4.09649,0.92,0,173.847,0,156.995
3.06,11.1665,4.96063,4.11489,0.92,0,174.976,0,160.536
3.08,11.1481,4.96191,4.13329,0.92,0,176.474,0,163.926
3.1,11.1298,4.96271,4.15169,0.92,0,178.195,0,167.163
3.12,11.1114,4.96301,4.17009,0.92,0,-179.884,0,170.248
3.14,11.093,4.96268,4.18849,0.92,0,-177.745,0,173.181
3.16,11.0746,4.96146,4.20689,0.92,0,-175.396,0,175.961
3.18,11.0563,4.95958,4.22529,0.92,0,-172.947,0,178.59
3.2,11.0381,4.95703,4.24369,0.92,0,-170.42,0,-178.934
3.22,11.0201,4.95353,4.26209,0.92,0,-167.847,0,-176.609
3.24,11.0022,4.94922,4.28049,0.92,0,-165.304,0,-174.437
3.26,10.9845,4.94426,4.29889,0.92,0,-162.813,0,-172.417
3.28,10.9669,4.93867,4.31729,0.92,0,-160.392,0,-170.55
3.3,10.9498,4.93196,4.33569,0.92,0,-158.188,0,-168.834
3.32,10.9329,4.92472,4.35409,0.92,0,-156.123,0,-167.27
3.34,10.9162,4.91699,4.37249,0.92,0,-154.198,0,-165.859
3.36,10.8998,4.90873,4.39089,0.92,0,-152.439,0,-164.6
3.38,10.8836,4.89997,4.40929,0.92,0,-150.86,0,-163.493
3.4,10.8676,4.89085,4.42769,0.92,0,-149.425,0,-162.538
3.42,10.8519,4.88137,4.44609,0.92,0,-148.14,0,-161.735
3.44,10.8364,4.87142,4.46449,0.92,0,-147.084,0,-161.085
3.46,10.821,4.86126,4.48289,0.92,0,-146.15,0,-160.586
3.48,10.8058,4.85093,4.50129,0.92,0,-145.317,0,-160.24
3.5,10.7907,4.84044,4.51969,0.92,0,-144.592,0,-160.046
3.52,10.7758,4.82965,4.53809,0.92,0,-144.128,0,-160
3.54,10.7609,4.8188,4.55649,0.92,0,-143.761,0,-160
3.56,10.7461,4.8079,4.57489,0.92,0.566677,-143.486,0,-160
3.58,10.7313,4.79693,4.59329,0.92,3.46432,-143.332,0,-160
3.6,10.7159,4.78541,4.61254,0.98521,4,-143.208,0,-160
3.62,10.6995,4.77315,4.633,1.06521,4,-143.077,0,-160
3.64,10.6819,4.75989,4.65503,1.14521,4,-142.854,0,-160
3.66,10.6632,4.74553,4.67868,1.22521,4,-142.453,0,-160
3.68,10.6432,4.73005,4.70396,1.30521,4,-141.947,0,-160
3.7,10.6221,4.71331,4.73087,1.38521,4,-141.238,0,-160
3.72,10.6,4.69531,4.75939,1.46521,4,-140.374,0,-160
3.74,10.577,4.6759,4.78948,1.54521,4,-139.309,0,-160
3.76,10.5532,4.65508,4.82112,1.62521,4,-138.065,0,-160
3.78,10.5287,4.63247,4.85441,1.70521,4,-136.591,0,-160
3.8,10.5037,4.60812,4.88936,1.78521,4,-134.931,0,-160
3.82,10.4783,4.58195,4.92578,1.86521,4,-133.097,0,-160
3.84,10.4528,4.5536,4.96395,1.94521,4,-131.119,0,-160
3.86,10.4271,4.52338,5.00358,2.02521,4,-129.082,0,-160
3.88,10.4017,4.49074,5.04494,2.10521,4,-127.109,0,-160
3.9,10.3764,4.45616,5.08784,2.18521,4,-125.306,0,-160
3.92,10.3512,4.41953,5.13231,2.26521,4,-123.913,0,-160
3.94,10.3257,4.38106,5.17841,2.34521,-0.220247,-123.096,0,-160
3.96,10.3003,4.34193,5.2251,2.30967,-4,-123.143,0,-160
3.98,10.2752,4.30411,5.27047,2.22967,-4,-124.097,0,-160
4,10.2501,4.2682,5.31428,2.14967,-4,-125.911,0,-160
4.02,10.2247,4.2345,5.3565,2.06967,-4,-128.448,0,-160
4.04,10.1986,4.20351,5.39704,1.98967,-4,-131.552,0,-160
4.06,10.172,4.17489,5.4361,1.90967,-4,-134.903,0,-160
4.08,10.1447,4.14946,5.47341,1.82967,-4,-138.339,0,-160
4.1,10.1175,4.12618,5.50927,1.74967,-4,-141.653,0,-160
4.12,10.09,4.10596,5.5434,1.66967,-4,-144.657,0,-160
4.14,10.063,4.08769,5.57596,1.58967,-4,-147.373,0,-160
4.16,10.0365,4.07157,5.60699,1.50967,-4,-149.719,0,-160
4.18,10.0109,4.05714,5.63644,1.42967,-4,-151.75,0,-160
4.2,9.98618,4.04433,5.66424,1.34967,-4,-153.466,0,-160
4.22,9.96259,4.03301,5.69041,1.26967,-4,-154.867,0,-160
4.24,9.94027,4.02264,5.71502,1.18967,-4,-156.103,0,-160
4.26,9.91913,4.01367,5.73799,1.10967,-4,-157.014,0,-160
4.28,9.89952,4.00548,5.75924,1.02967,-4,-157.811,0,-160
4.3,9.88128,3.99819,5.77888,0.949671,-4,-158.425,0,-160
4.32,9.86433,3.99159,5.79707,0.869671,-4,-158.919,0,-160
4.34,9.84863,3.98556,5.8139,0.789671,-4,-159.332,0,-160
4.36,9.83506,3.98051,5.82837,0.709671,-4,-159.602,0,-160
4.38,9.82206,3.9757,5.84223,0.629671,-4,-159.842,0,-160
4.4,9.81184,3.97197,5.85312,0.549671,-4,-159.971,0,-160
4.42,9.80161,3.96825,5.864,0.469671,-4,-160.099,0,-160
4.44,9.79596,3.9662,5.87001,0.389671,-4,-160.151,0,-160
4.46,9.79171,3.96468,5.87452,0.309671,-4,-160.179,0,-160
4.48,9.78747,3.96315,5.87903,0.229671,-4,-160.207,0,-160
4.5,9.78323,3.96163,5.88354,0.149671,-4,-160.235,0,-160
4.52,9.77899,3.96011,5.88804,0.0696709,-4,-160.263,0,-160
