"time","x","y","position","velocity","acceleration","heading","curvature","rotation"
0,14.6634,5.17533,0,0,3,180,0,-1.40334e-14
0.02,14.6595,5.17533,0.00390384,0.06,3,-179.995,0,-1.40334e-14
0.04,14.6556,5.17532,0.00780769,0.12,3,-179.989,0,-1.40334e-14
0.06,14.6517,5.17532,0.0117115,0.18,3,-179.984,0,-1.40334e-14
0.08,14.6478,5.17532,0.0156154,0.24,3,-179.979,0,-1.40334e-14
0.1,14.6439,5.17532,0.0195192,0.3,3,-179.973,0,-1.40334e-14
0.12,14.64,5.17532,0.0234231,0.36,3,-179.968,0,-1.40334e-14
0.14,14.6334,5.17531,0.030052,0.42,3,-179.952,0,-1.40334e-14
0.16,14.624,5.1753,0.0394767,0.48,3,-179.924,0,-1.40334e-14
0.18,14.6145,5.17529,0.0489014,0.54,3,-179.896,0,-1.40334e-14
0.2,14.6028,5.17526,0.0606082,0.6,3,-179.847,0,-1.40334e-14
0.22,14.5905,5.17523,0.0728907,0.66,3,-179.792,0,-1.40334e-14
0.24,14.5766,5.17517,0.086844,0.72,3,-179.709,0,-1.40334e-14
0.26,14.562,5.17509,0.101413,0.78,3,-179.616,0,-1.40334e-14
0.28,14.5455,5.17494,0.117925,0.84,3,-179.48,0,-1.40334e-14
0.3,14.5282,5.17476,0.135254,0.9,3,-179.326,0,-1.40334e-14
0.32,14.5098,5.17453,0.153646,0.96,3,-179.147,0,-1.40334e-14
0.34,14.4899,5.17421,0.173537,1.02,3,-178.928,0,-1.40334e-14
0.36,14.4689,5.17375,0.19459,1.08,3,-178.663,0,-1.40334e-14
0.38,14.4467,5.17316,0.216786,1.14,3,-178.355,0,-1.40334e-14
0.4,14.4233,5.17242,0.240166,1.2,3,-178.002,0,-1.40334e-14
0.42,14.3987,5.17149,0.264748,1.26,3,-177.601,0,-1.40334e-14
0.44,14.373,5.17032,0.290536,1.32,3,-177.139,0,-1.40334e-14
0.46,14.346,5.16883,0.317527,1.38,3,-176.611,0,-1.40334e-14
0.48,14.3179,5.16701,0.345712,1.44,3,-176.018,0,-1.40334e-14
0.5,14.2886,5.16483,0.375078,1.5,3,-175.358,0,-1.40334e-14
0.52,14.2582,5.16221,0.405612,1.56,3,-174.624,0,-1.40334e-14
0.54,14.2265,5.15895,0.437463,1.62,3,-173.797,0,-1.40334e-14
0.56,14.1937,5.15511,0.470486,1.68,3,-172.893,0,-1.40334e-14
0.58,14.1599,5.15062,0.504637,1.74,3,-171.914,0,-1.40334e-14
0.6,14.1248,5.14533,0.540057,1.8,3,-170.853,0,-1.40334e-14
0.62,14.0888,5.13917,0.576659,1.86,3,-169.722,0,-1.40334e-14
0.64,14.0517,5.13203,0.61444,1.92,3,-168.536,0,-1.40334e-14
0.66,14.0135,5.12385,0.653449,1.98,3,-167.315,0,-1.40334e-14
0.68,13.9744,5.1146,0.693649,2.04,3,-166.093,0,-1.40334e-14
0.7,13.9343,5.10426,0.735013,2.1,3,-164.906,0,-1.40334e-14
0.72,13.8933,5.09273,0.777649,2.16,3,-163.813,0,-1.40334e-14
0.74,13.8513,5.08017,0.821444,2.22,3,-162.867,0,-1.40334e-14
0.76,13.8085,5.06661,0.866418,2.28,3,-162.148,0,-1.40334e-14
0.78,13.7646,5.05226,0.912612,2.34,3,-161.689,0,-1.40334e-14
0.8,13.7196,5.03728,0.960027,2.4,3,-161.564,0,-1.40334e-14
0.82,13.6734,5.02198,1.00863,2.46,0.797591,-161.796,0,-1.40334e-14
0.84,13.6266,5.0068,1.05785,2.44783,-3,-162.377,0,-1.40334e-14
0.86,13.5804,4.99249,1.1062,2.38783,-3,-163.266,0,-1.40334e-14
0.88,13.5351,4.97934,1.15336,2.32783,-3,-164.386,0,-1.40334e-14
0.9,13.4908,4.96743,1.19932,2.26783,-3,-165.65,0,-1.40334e-14
0.92,13.4472,4.9568,1.24411,2.20783,-3,-166.99,0,-1.40334e-14
0.94,13.4047,4.94753,1.28763,2.14783,-3,-168.349,0,-1.40334e-14
0.96,13.3632,4.93945,1.32997,2.08783,-3,-169.679,0,-1.40334e-14
0.98,13.3225,4.93252,1.37118,2.02783,-3,-170.952,0,-1.40334e-14
1,13.2831,4.92671,1.41108,1.96783,-3,-172.137,0,-1.40334e-14
1.02,13.2446,4.92174,1.44987,1.90783,-3,-173.239,0,-1.40334e-14
1.04,13.2073,4.91765,1.48738,1.84783,-3,-174.239,0,-1.40334e-14
1.06,13.171,4.91428,1.52381,1.78783,-3,-175.144,0,-1.40334e-14
1.08,13.1361,4.91159,1.55889,1.72783,-3,-175.943,0,-1.40334e-14
1.1,13.1022,4.90938,1.59285,1.66783,-3,-176.662,0,-1.40334e-14
1.12,13.0694,4.90763,1.62568,1.60783,-3,-177.294,0,-1.40334e-14
1.14,13.0379,4.90634,1.65716,1.54783,-3,-177.832,0,-1.40334e-14
1.16,13.0076,4.90531,1.68748,1.48783,-3,-178.302,0,-1.40334e-14
1.18,12.9785,4.90454,1.71663,1.42783,-3,-178.705,0,-1.40334e-14
1.2,12.9505,4.90401,1.74459,1.36783,-3,-179.037,0,-1.40334e-14
1.22,12.9238,4.90362,1.77135,1.30783,-3,-179.313,0,-1.40334e-14
1.24,12.8982,4.90336,1.7969,1.24783,-3,-179.54,0,-1.40334e-14
1.26,12.8739,4.9032,1.82123,1.18783,-3,-179.71,0,-1.40334e-14
1.28,12.8508,4.90312,1.84435,1.12783,-3,-179.832,0,-1.40334e-14
1.3,12.8289,4.90307,1.86627,1.06783,-3,-179.918,0,-1.40334e-14
1.32,12.8081,4.90305,1.88704,1.00783,-3,-179.971,0,-1.40334e-14
1.34,12.7884,4.90304,1.90673,0.947827,-2.79375,-179.997,0,-1.40334e-14
1.36,12.7702,4.90304,1.92496,0.887827,-0.639924,179.991,0,0.052611
1.38,12.7525,4.90305,1.94261,0.87,0,179.97,0,0.210444
1.4,12.7351,4.90306,1.96001,0.87,0,179.942,0,0.473499
1.42,12.7177,4.90309,1.97741,0.87,0,179.902,0,0.841777
1.44,12.7003,4.90313,1.99481,0.87,0,179.85,0,1.31528
1.46,12.6829,4.90318,2.01221,0.87,0,179.79,0,1.894
1.48,12.6655,4.90325,2.02961,0.87,0,179.721,0,2.57794
1.5,12.6481,4.90335,2.04701,0.87,0,179.639,0,3.36711
1.52,12.6307,4.90347,2.06441,0.87,0,179.55,0,4.26149
1.54,12.6133,4.90362,2.08181,0.87,0,179.452,0,5.2611
1.56,12.5959,4.90381,2.09921,0.87,0,179.342,0,6.36594
1.58,12.5785,4.90403,2.11661,0.87,0,179.225,0,7.57599
1.6,12.5611,4.90427,2.13401,0.87,0,179.1,0,8.89127
1.62,12.5437,4.90457,2.15141,0.87,0,178.963,0,10.3118
1.64,12.5263,4.90492,2.16881,0.87,0,178.817,0,11.8375
1.66,12.5089,4.9053,2.18621,0.87,0,178.664,0,13.4684
1.68,12.4916,4.90575,2.20361,0.87,0,178.499,0,15.2046
1.7,12.4742,4.90623,2.22101,0.87,0,178.329,0,17.046
1.72,12.4568,4.90675,2.23841,0.87,0,178.154,0,18.9926
1.74,12.4394,4.90735,2.25581,0.87,0,177.966,0,21.0444
1.76,12.422,4.908,2.27321,0.87,0,177.772,0,23.2015
1.78,12.4046,4.90869,2.29061,0.87,0,177.573,0,25.4637
1.8,12.3872,4.90946,2.30801,0.87,0,177.366,0,27.8312
1.82,12.3698,4.9103,2.32541,0.87,0,177.153,0,30.304
1.84,12.3525,4.91119,2.34281,0.87,0,176.936,0,32.8819
1.86,12.3351,4.91213,2.36021,0.87,0,176.715,0,35.5651
1.88,12.3177,4.91319,2.37761,0.87,0,176.49,0,38.3534
1.9,12.3004,4.91429,2.39501,0.87,0,176.263,0,41.2471
1.92,12.283,4.91541,2.41241,0.87,0,176.037,0,44.2459
1.94,12.2656,4.91669,2.42981,0.87,0,175.813,0,47.3499
1.96,12.2483,4.918,2.44721,0.87,0,175.593,0,50.5592
1.98,12.2309,4.91935,2.46461,0.87,0,175.376,0,53.8737
2,12.2136,4.92079,2.48201,0.87,0,175.168,0,57.2934
2.02,12.1963,4.92229,2.49941,0.87,0,174.973,0,60.8184
2.04,12.1789,4.92384,2.51681,0.87,0,174.789,0,64.4485
2.06,12.1616,4.92544,2.53421,0.87,0,174.617,0,68.1839
2.08,12.1443,4.9271,2.55161,0.87,0,174.467,0,72.0245
2.1,12.127,4.9288,2.56901,0.87,0,174.334,0,75.9703
2.12,12.1097,4.93053,2.58641,0.87,0,174.229,0,80.0214
2.14,12.0924,4.9323,2.60381,0.87,0,174.143,0,84.1777
2.16,12.075,4.93408,2.62121,0.87,0,174.077,0,88.4392
2.18,12.0577,4.93588,2.63861,0.87,0,174.047,0,92.7459
2.2,12.0404,4.93769,2.65601,0.87,0,174.048,0,96.9538
2.22,12.0231,4.93949,2.67341,0.87,0,174.068,0,101.056
2.24,12.0058,4.94129,2.69081,0.87,0,174.105,0,105.054
2.26,11.9885,4.94305,2.70821,0.87,0,174.189,0,108.946
2.28,11.9712,4.9448,2.72561,0.87,0,174.292,0,112.733
2.3,11.9539,4.94651,2.74301,0.87,0,174.411,0,116.415
2.32,11.9366,4.9482,2.76041,0.87,0,174.553,0,119.991
2.34,11.9192,4.94982,2.77781,0.87,0,174.716,0,123.463
2.36,11.9019,4.95139,2.79521,0.87,0,174.897,0,126.829
2.38,11.8846,4.9529,2.81261,0.87,0,175.091,0,130.09
2.4,11.8672,4.95436,2.83001,0.87,0,175.293,0,133.245
2.42,11.8499,4.95578,2.84741,0.87,0,175.503,0,136.296
2.44,11.8325,4.95708,2.86481,0.87,0,175.725,0,139.241
2.46,11.8152,4.95835,2.88221,0.87,0,175.948,0,142.081
2.48,11.7978,4.95956,2.89961,0.87,0,176.173,0,144.816
2.5,11.7805,4.96067,2.91701,0.87,0,176.4,0,147.445
2.52,11.7631,4.96172,2.93441,0.87,0,176.625,0,149.969
2.54,11.7457,4.96272,2.95181,0.87,0,176.848,0,152.389
2.56,11.7284,4.96366,2.96921,0.87,0,177.069,0,154.702
2.58,11.711,4.96449,2.98661,0.87,0,177.281,0,156.911
2.6,11.6936,4.96529,3.00401,0.87,0,177.491,0,159.014
2.62,11.6762,4.96605,3.02141,0.87,0,177.698,0,161.013
2.64,11.6588,4.96668,3.03881,0.87,0,177.89,0,162.906
2.66,11.6414,4.9673,3.05621,0.87,0,178.079,0,164.693
2.68,11.624,4.9679,3.07361,0.87,0,178.267,0,166.376
2.7,11.6066,4.96835,3.09101,0.87,0,178.433,0,167.953
2.72,11.5893,4.96881,3.10841,0.87,0,178.598,0,169.425
2.74,11.5719,4.96925,3.12581,0.87,0,178.762,0,170.792
2.76,11.5545,4.96959,3.14321,0.87,0,178.909,0,172.054
2.78,11.5371,4.9699,3.16061,0.87,0,179.047,0,173.21
2.8,11.5197,4.97018,3.17801,0.87,0,179.178,0,174.262
2.82,11.5023,4.9704,3.19541,0.87,0,179.299,0,175.207
2.84,11.4849,4.9706,3.21281,0.87,0,179.41,0,176.048
2.86,11.4675,4.97076,3.23021,0.87,0,179.513,0,176.784
2.88,11.4501,4.97089,3.24761,0.87,0,179.607,0,177.414
2.9,11.4327,4.971,3.26501,0.87,0,179.689,0,177.939
2.92,11.4153,4.97108,3.28241,0.87,0,179.764,0,178.359
2.94,11.3979,4.97114,3.29981,0.87,0,179.83,0,178.674
2.96,11.3805,4.97118,3.31721,0.87,0,179.882,0,178.883
2.98,11.3631,4.97121,3.33461,0.87,0,179.927,0,178.987
3,11.3457,4.97123,3.35201,0.87,0,179.962,0,179
3.02,11.3283,4.97124,3.36941,0.87,1.96479,179.982,0,179
3.04,11.3105,4.97124,3.38722,0.899777,3,179.992,0,179
3.06,11.2921,4.97124,3.40563,0.959777,3,179.992,0,179.001
3.08,11.2722,4.97125,3.42547,1.01978,3,179.975,0,179.006
3.1,11.2512,4.97126,3.44653,1.07978,3,179.941,0,179.013
3.12,11.229,4.9713,3.46872,1.13978,3,179.887,0,179.024
3.14,11.2056,4.97136,3.4921,1.19978,3,179.81,0,179.037
3.16,11.181,4.97146,3.51668,1.25978,3,179.711,0,179.053
3.18,11.1552,4.97162,3.54246,1.31978,3,179.586,0,179.073
3.2,11.1282,4.97185,3.56945,1.37978,3,179.434,0,179.095
3.22,11.1001,4.97217,3.59763,1.43978,3,179.252,0,179.12
3.24,11.0707,4.9726,3.62698,1.49978,3,179.037,0,179.148
3.26,11.0402,4.97316,3.65751,1.55978,3,178.788,0,179.179
3.28,11.0083,4.97393,3.68937,1.61978,3,178.493,0,179.213
3.3,10.9753,4.9749,3.72238,1.67978,3,178.159,0,179.25
3.32,10.9412,4.9761,3.75653,1.73978,3,177.784,0,179.29
3.34,10.9058,4.97762,3.79195,1.79978,3,177.361,0,179.333
3.36,10.8693,4.97947,3.82854,1.85978,3,176.894,0,179.379
3.38,10.8316,4.98169,3.86633,1.91978,3,176.387,0,179.428
3.4,10.7926,4.98433,3.90532,1.97978,3,175.846,0,179.48
3.42,10.7526,4.98742,3.94552,2.03978,3,175.281,0,179.534
3.44,10.7114,4.99099,3.98688,2.09978,3,174.709,0,179.585
3.46,10.6689,4.99517,4.02951,2.15978,3,174.166,0,179.633
3.48,10.6254,4.99981,4.0733,2.21978,3,173.68,0,179.678
3.5,10.5807,5.0049,4.11825,2.27534,-0.324524,173.286,0,179.72
3.52,10.5357,5.01031,4.1636,2.2452,-3,173.057,0,179.76
3.54,10.4918,5.01569,4.20787,2.1852,-3,173.01,0,179.796
3.56,10.449,5.02091,4.25097,2.1252,-3,173.113,0,179.829
3.58,10.4073,5.02586,4.29292,2.0652,-3,173.373,0,179.86
3.6,10.3669,5.0304,4.33357,2.0052,-3,173.751,0,179.887
3.62,10.3276,5.03459,4.3731,1.9452,-3,174.193,0,179.911
3.64,10.2895,5.03827,4.41138,1.8852,-3,174.689,0,179.933
3.66,10.2525,5.04154,4.4485,1.8252,-3,175.199,0,179.951
3.68,10.2168,5.04438,4.48437,1.7652,-3,175.702,0,179.967
3.7,10.1821,5.04684,4.51912,1.7052,-3,176.188,0,179.979
3.72,10.1487,5.04893,4.55259,1.6452,-3,176.645,0,179.989
3.74,10.1165,5.05069,4.58486,1.5852,-3,177.067,0,179.996
3.76,10.0854,5.0522,4.61598,1.5252,-3,177.459,0,179.999
3.78,10.0555,5.05345,4.64593,1.4652,-3,177.812,0,180
3.8,10.0268,5.05447,4.67465,1.4052,-3,178.129,0,180
3.82,9.99934,5.05529,4.70211,1.3452,-3,178.409,0,180
3.84,9.97307,5.05596,4.7284,1.2852,-3,178.659,0,180
3.86,9.94797,5.05651,4.7535,1.2252,-3,178.879,0,180
3.88,9.92405,5.05694,4.77742,1.1652,-3,179.072,0,180
3.9,9.9013,5.05728,4.80018,1.1052,-3,179.24,0,180
3.92,9.87991,5.05753,4.82157,1.0452,-3,179.382,0,180
3.94,9.85971,5.05772,4.84177,0.985203,-3,179.502,0,180
3.96,9.84065,5.05787,4.86083,0.925203,-3,179.605,0,180
3.98,9.82258,5.05798,4.8789,0.865203,-3,179.693,0,180
4,9.80605,5.05805,4.89543,0.805203,-3,179.762,0,180
4.02,9.79068,5.05811,4.9108,0.745203,-3,179.82,0,180
4.04,9.77611,5.05815,4.92537,0.685203,-3,179.869,0,180
4.06,9.76348,5.05818,4.938,0.625203,-3,179.903,0,180
4.08,9.7512,5.0582,4.95028,0.565203,-3,179.934,0,180
4.1,9.74115,5.0582,4.96033,0.505203,-3,179.953,0,180
4.12,9.73172,5.05821,4.96976,0.445203,-3,179.969,0,180
4.14,9.72278,5.05822,4.9787,0.385203,-3,179.983,0,180
4.16,9.71887,5.05822,4.98261,0.325203,-3,179.986,0,180
4.18,9.71497,5.05822,4.98651,0.265203,-3,179.988,0,180
4.2,9.71107,5.05822,4.99042,0.205203,-3,179.99,0,180
4.22,9.70716,5.05822,4.99432,0.145203,-3,179.993,0,180
4.24,9.70326,5.05822,4.99822,0.0852032,-3,179.995,0,180
4.26,9.69935,5.05822,5.00213,0.0252032,-3,179.997,0,180
