"time","x","y","position","velocity","acceleration","heading","curvature","rotation"
0,1.84458,5.13049,0,0,3,0,0,180
0.02,1.84849,5.13048,0.00390384,0.06,3,-0.0261739,0,180
0.04,1.85239,5.13047,0.00780769,0.12,3,-0.0523478,0,180
0.06,1.8563,5.13046,0.0117115,0.18,3,-0.0785217,0,180
0.08,1.8602,5.13046,0.0156154,0.24,3,-0.104696,0,180
0.1,1.8641,5.13045,0.0195192,0.3,3,-0.13087,0,180
0.12,1.86801,5.13044,0.0234231,0.36,3,-0.157043,0,180
0.14,1.87464,5.13042,0.030052,0.42,3,-0.213398,0,180
0.16,1.88406,5.13038,0.0394767,0.48,3,-0.300717,0,180
0.18,1.89349,5.13035,0.0489014,0.54,3,-0.388036,0,180
0.2,1.90519,5.13022,0.0606082,0.6,3,-0.591605,0,180
0.22,1.91747,5.13007,0.0728907,0.66,3,-0.824496,0,180
0.24,1.93142,5.12982,0.0868439,0.72,3,-1.14066,0,180
0.26,1.94599,5.12952,0.101413,0.78,3,-1.48754,0,180
0.28,1.96249,5.12901,0.117925,0.84,3,-1.98325,0,180
0.3,1.97981,5.12832,0.135254,0.9,3,-2.56462,0,180
0.32,1.99818,5.12739,0.153646,0.96,3,-3.25553,0,180
0.34,2.01803,5.12623,0.173537,1.02,3,-4.06212,0,180
0.36,2.03901,5.12445,0.19459,1.08,3,-5.08077,0,180
0.38,2.06109,5.12223,0.216786,1.14,3,-6.24204,0,180
0.4,2.08431,5.11947,0.240166,1.2,3,-7.56348,0,180
0.42,2.10862,5.11589,0.264748,1.26,3,-9.09,0,180
0.44,2.13402,5.11145,0.290536,1.32,3,-10.8114,0,180
0.46,2.16045,5.106,0.317527,1.38,3,-12.7237,0,180
0.48,2.18781,5.09923,0.345712,1.44,3,-14.8287,0,180
0.5,2.21606,5.09125,0.375078,1.5,3,-17.0737,0,180
0.52,2.24509,5.08178,0.405612,1.56,3,-19.4207,0,180
0.54,2.27485,5.07044,0.437463,1.62,3,-21.7601,0,180
0.56,2.30528,5.05764,0.470486,1.68,3,-24.0204,0,180
0.58,2.33622,5.0432,0.504637,1.74,3,-26.0316,0,180
0.6,2.36779,5.02714,0.540057,1.8,3,-27.6227,0,180
0.62,2.40006,5.00986,0.576659,1.86,3,-28.7563,0,180
0.64,2.43309,4.99153,0.61444,1.92,3,-29.1537,0,180
0.66,2.4672,4.97259,0.653449,1.98,3,-28.8124,0,180
0.68,2.50257,4.95349,0.69365,2.04,3,-27.7151,0,180
0.7,2.5395,4.93488,0.735013,2.1,-0.0240081,-25.7714,0,180
0.72,2.57757,4.91746,0.776877,2.07803,-3,-23.213,0,180
0.74,2.61564,4.90233,0.817853,2.01803,-3,-20.2812,0,180
0.76,2.65325,4.88948,0.857608,1.95803,-3,-17.2555,0,180
0.78,2.69036,4.87908,0.896157,1.89803,-3,-14.3119,0,180
0.8,2.72676,4.87067,0.933521,1.83803,-3,-11.5706,0,180
0.82,2.76234,4.86423,0.969688,1.77803,-3,-9.12472,0,180
0.84,2.79692,4.85933,1.00461,1.71803,-3,-6.98826,0,180
0.86,2.83053,4.85579,1.03842,1.65803,-3,-5.18353,0,180
0.88,2.86297,4.85327,1.07096,1.59803,-3,-3.67923,0,180
0.9,2.89424,4.85164,1.10228,1.53803,-3,-2.48154,0,180
0.92,2.92438,4.85057,1.13243,1.47803,-3,-1.52286,0,180
0.94,2.95334,4.85,1.1614,1.41803,-3,-0.843872,0,180
0.96,2.98112,4.84969,1.18918,1.35803,-3,-0.35375,0,180
0.98,3.00769,4.8496,1.21575,1.29803,-3,-0.12941,0,180
1,3.03305,4.84957,1.24111,1.23803,-0.398266,-0.00969284,0,180
1.02,3.05773,4.84957,1.26579,1.23,0,0.0170224,0,179.956
1.04,3.08233,4.84959,1.29039,1.23,0,0.0455279,0,179.825
1.06,3.10693,4.84961,1.31499,1.23,0,0.0837731,0,179.607
1.08,3.13153,4.84966,1.33959,1.23,0,0.140215,0,179.3
1.1,3.15613,4.84974,1.36419,1.23,0,0.207515,0,178.907
1.12,3.18073,4.84984,1.38879,1.23,0,0.285563,0,178.426
1.14,3.20533,4.84999,1.41339,1.23,0,0.37645,0,177.858
1.16,3.22993,4.85016,1.43799,1.23,0,0.476008,0,177.202
1.18,3.25453,4.85039,1.46259,1.23,0,0.586661,0,176.459
1.2,3.27912,4.85068,1.48719,1.23,0,0.707231,0,175.628
1.22,3.30372,4.851,1.51179,1.23,0,0.834874,0,174.71
1.24,3.32832,4.85139,1.53639,1.23,0,0.971783,0,173.704
1.26,3.35291,4.85184,1.56099,1.23,0,1.11673,0,172.611
1.28,3.37751,4.85235,1.58559,1.23,0,1.26754,0,171.431
1.3,3.4021,4.85293,1.61019,1.23,0,1.42544,0,170.163
1.32,3.42669,4.85358,1.63479,1.23,0,1.58895,0,168.808
1.34,3.45128,4.85429,1.65939,1.23,0,1.75677,0,167.365
1.36,3.47587,4.85508,1.68399,1.23,0,1.92941,0,165.835
1.38,3.50046,4.85595,1.70859,1.23,0,2.10509,0,164.217
1.4,3.52504,4.85688,1.73319,1.23,0,2.28277,0,162.512
1.42,3.54962,4.8579,1.75779,1.23,0,2.46205,0,160.72
1.44,3.57419,4.859,1.78239,1.23,0,2.64121,0,158.84
1.46,3.59876,4.86017,1.80699,1.23,0,2.8194,0,156.873
1.48,3.62333,4.86141,1.83159,1.23,0,2.99524,0,154.818
1.5,3.6479,4.86274,1.85619,1.23,0,3.16603,0,152.676
1.52,3.67246,4.86413,1.88079,1.23,0,3.33171,0,150.446
1.54,3.69701,4.86558,1.90539,1.23,0,3.49125,0,148.129
1.56,3.72157,4.86712,1.92999,1.23,0,3.63892,0,145.724
1.58,3.74611,4.86872,1.95459,1.23,0,3.7742,0,143.232
1.6,3.77066,4.87036,1.97919,1.23,0,3.8968,0,140.653
1.62,3.7952,4.87205,2.00379,1.23,0,4.00493,0,137.986
1.64,3.81974,4.87379,2.02839,1.23,0,4.09088,0,135.232
1.66,3.84428,4.87556,2.05299,1.23,0,4.15388,0,132.39
1.68,3.86881,4.87735,2.07759,1.23,0,4.19365,0,129.461
1.7,3.89334,4.87916,2.10219,1.23,0,4.20804,0,126.444
1.72,3.91788,4.88096,2.12679,1.23,0,4.19451,0,123.34
1.74,3.94241,4.88275,2.15139,1.23,0,4.14362,0,120.149
1.76,3.96695,4.88451,2.17599,1.23,0,4.05595,0,116.87
1.78,3.99149,4.88622,2.20059,1.23,0,3.93192,0,113.503
1.8,4.01604,4.88787,2.22519,1.23,0,3.76981,0,110.05
1.82,4.04058,4.88945,2.24979,1.23,0,3.56789,0,106.508
1.84,4.06514,4.89094,2.27439,1.23,0,3.32479,0,102.88
1.86,4.0897,4.89231,2.29899,1.23,0,3.03557,0,99.1635
1.88,4.11427,4.89353,2.32359,1.23,0,2.7,0,95.3599
1.9,4.13885,4.8946,2.34819,1.23,0,2.32232,0,91.469
1.92,4.16343,4.89551,2.37279,1.23,0,1.90432,0,87.5403
1.94,4.18802,4.89623,2.39739,1.23,0,1.44773,0,83.6938
1.96,4.21261,4.89676,2.42199,1.23,0,0.954843,0,79.9347
1.98,4.23721,4.89707,2.44659,1.23,0,0.428497,0,76.2631
2,4.26181,4.89715,2.47119,1.23,0,-0.128935,0,72.6789
2.02,4.28641,4.89696,2.49579,1.23,0,-0.714885,0,69.1821
2.04,4.311,4.89651,2.52039,1.23,0,-1.32263,0,65.7728
2.06,4.33559,4.8958,2.54499,1.23,0,-1.94659,0,62.451
2.08,4.36017,4.89483,2.56959,1.23,0,-2.5825,0,59.2165
2.1,4.38474,4.89359,2.59419,1.23,0,-3.2262,0,56.0695
2.12,4.4093,4.89209,2.61879,1.23,0,-3.87374,0,53.01
2.14,4.43383,4.89031,2.64339,1.23,0,-4.52099,0,50.0378
2.16,4.45834,4.88821,2.66799,1.23,0,-5.16266,0,47.1532
2.18,4.48283,4.88585,2.69259,1.23,0,-5.79593,0,44.3559
2.2,4.50729,4.88323,2.71719,1.23,0,-6.41819,0,41.6461
2.22,4.53172,4.88037,2.74179,1.23,0,-7.02756,0,39.0237
2.24,4.55612,4.87724,2.76639,1.23,0,-7.62059,0,36.4888
2.26,4.58048,4.87382,2.79099,1.23,0,-8.19218,0,34.0413
2.28,4.60481,4.87018,2.81559,1.23,0,-8.74526,0,31.6812
2.3,4.62911,4.86634,2.84019,1.23,0,-9.27991,0,29.4086
2.32,4.65337,4.86228,2.86479,1.23,0,-9.79412,0,27.2235
2.34,4.67759,4.85797,2.88939,1.23,0,-10.2818,0,25.1257
2.36,4.70178,4.85347,2.91399,1.23,0,-10.7482,0,23.1154
2.38,4.72593,4.8488,2.93859,1.23,0,-11.1958,0,21.1925
2.4,4.75004,4.84393,2.96319,1.23,0,-11.6188,0,19.3571
2.42,4.77412,4.83888,2.98779,1.23,0,-12.0177,0,17.6091
2.44,4.79816,4.83368,3.01239,1.23,0,-12.3973,0,15.9486
2.46,4.82217,4.82833,3.03699,1.23,0,-12.7561,0,14.3755
2.48,4.84615,4.82282,3.06159,1.23,0,-13.0909,0,12.8898
2.5,4.87009,4.81718,3.08619,1.23,0,-13.4063,0,11.4915
2.52,4.89401,4.81142,3.11079,1.23,0,-13.7031,0,10.1807
2.54,4.91789,4.80553,3.13539,1.23,0,-13.9776,0,8.95738
2.56,4.94175,4.79953,3.15999,1.23,0,-14.2335,0,7.82146
2.58,4.96558,4.79344,3.18459,1.23,0,-14.4722,0,6.77297
2.6,4.98939,4.78724,3.20919,1.23,0,-14.6895,0,5.81193
2.62,5.01317,4.78096,3.23379,1.23,0,-14.8906,0,4.93832
2.64,5.03694,4.77461,3.25839,1.23,0,-15.0754,0,4.15215
2.66,5.06068,4.76816,3.28299,1.23,0,-15.2373,0,3.45341
2.68,5.08441,4.76167,3.30759,1.23,0,-15.386,0,2.84212
2.7,5.10812,4.75512,3.33219,1.23,0,-15.5175,0,2.31826
2.72,5.13181,4.74851,3.35679,1.23,0,-15.6284,0,1.88184
2.74,5.1555,4.74187,3.38139,1.23,0,-15.7272,0,1.53286
2.76,5.17917,4.73518,3.40599,1.23,0,-15.8034,0,1.27132
2.78,5.20284,4.72847,3.43059,1.23,0,-15.8646,0,1.09721
2.8,5.2265,4.72173,3.45519,1.23,0.108669,-15.9112,0,1.01055
2.82,5.25016,4.71498,3.47979,1.23029,3,-15.9319,0,1
2.84,5.2744,4.70806,3.505,1.29029,3,-15.9486,0,1
2.86,5.2998,4.7008,3.53142,1.35029,3,-15.9669,0,0.999259
2.88,5.32637,4.69318,3.55906,1.41029,3,-16.0197,0,0.997036
2.9,5.35408,4.6852,3.5879,1.47029,3,-16.1013,0,0.993331
2.92,5.38292,4.67685,3.61792,1.53029,3,-16.2123,0,0.988144
2.94,5.41286,4.66811,3.64911,1.59029,3,-16.353,0,0.981475
2.96,5.44388,4.65897,3.68145,1.65029,3,-16.5246,0,0.973324
2.98,5.47612,4.64933,3.7151,1.71029,3,-16.7321,0,0.963691
3,5.50944,4.63923,3.74991,1.77029,3,-16.9678,0,0.952576
3.02,5.5438,4.62867,3.78586,1.83029,3,-17.2296,0,0.939979
3.04,5.57936,4.61754,3.82312,1.89029,3,-17.5181,0,0.9259
3.06,5.6159,4.60592,3.86147,1.95029,3,-17.8241,0,0.910339
3.08,5.65362,4.59367,3.90112,2.01029,3,-18.1422,0,0.893296
3.1,5.69234,4.58086,3.94191,2.07029,3,-18.458,0,0.874771
3.12,5.73214,4.56746,3.9839,2.13029,3,-18.7545,0,0.854764
3.14,5.77304,4.55345,4.02713,2.19029,3,-18.9982,0,0.833275
3.16,5.81499,4.53893,4.07153,2.25029,3,-19.1749,0,0.810304
3.18,5.85803,4.52393,4.11711,2.31029,3,-19.2375,0,0.785851
3.2,5.90223,4.50855,4.16391,2.37029,3,-19.117,0,0.759916
3.22,5.9474,4.49304,4.21166,2.37995,-2.96083,-18.7657,0,0.732499
3.24,5.99196,4.47815,4.25865,2.32037,-3,-18.1746,0,0.7036
3.26,6.03557,4.46414,4.30445,2.26037,-3,-17.3575,0,0.673219
3.28,6.07827,4.45119,4.34907,2.20037,-3,-16.3218,0,0.641356
3.3,6.12007,4.43943,4.3925,2.14037,-3,-15.1163,0,0.608011
3.32,6.1609,4.42891,4.43467,2.08037,-3,-13.8094,0,0.573184
3.34,6.20083,4.41953,4.47569,2.02037,-3,-12.4622,0,0.536875
3.36,6.23981,4.41144,4.5155,1.96037,-3,-11.1203,0,0.499084
3.38,6.27776,4.40445,4.55409,1.90037,-3,-9.83455,0,0.461364
3.4,6.31469,4.39842,4.5915,1.84037,-3,-8.62682,0,0.425125
3.42,6.35054,4.39338,4.62771,1.78037,-3,-7.52376,0,0.390369
3.44,6.38525,4.38911,4.66269,1.72037,-3,-6.52324,0,0.357094
3.46,6.41892,4.38546,4.69655,1.66037,-3,-5.6152,0,0.325302
3.48,6.45135,4.38248,4.72912,1.60037,-3,-4.81684,0,0.294991
3.5,6.48263,4.38006,4.76049,1.54037,-3,-4.11818,0,0.266163
3.52,6.51276,4.37806,4.79069,1.48037,-3,-3.50288,0,0.238816
3.54,6.54174,4.37642,4.81972,1.42037,-3,-2.96405,0,0.212952
3.56,6.56954,4.37509,4.84755,1.36037,-3,-2.49461,0,0.188569
3.58,6.59614,4.37403,4.87417,1.30037,-3,-2.08755,0,0.165669
3.6,6.62153,4.37318,4.89957,1.24037,-3,-1.73612,0,0.14425
3.62,6.6457,4.37251,4.92375,1.18037,-3,-1.4339,0,0.124314
3.64,6.66865,4.37198,4.94671,1.12037,-3,-1.17487,0,0.105859
3.66,6.69038,4.37158,4.96845,1.06037,-3,-0.956422,0,0.088887
3.68,6.71095,4.37128,4.98902,1.00037,-3,-0.771756,0,0.0733965
3.7,6.73042,4.37105,5.00849,0.94037,-3,-0.614424,0,0.059388
3.72,6.74871,4.37087,5.02678,0.88037,-3,-0.482836,0,0.0468615
3.74,6.76546,4.37075,5.04353,0.82037,-3,-0.379104,0,0.035817
3.76,6.78133,4.37065,5.0594,0.76037,-3,-0.289036,0,0.0262546
3.78,6.7959,4.37059,5.07397,0.70037,-3,-0.217834,0,0.0181741
3.8,6.80911,4.37054,5.08718,0.64037,-3,-0.161679,0,0.0115756
3.82,6.82139,4.37051,5.09946,0.58037,-3,-0.115698,0,0.00645911
3.84,6.83216,4.37049,5.11023,0.52037,-3,-0.0823491,0,0.00282463
3.86,6.84158,4.37048,5.11965,0.46037,-3,-0.0602638,0,0.000672154
3.88,6.85101,4.37047,5.12908,0.40037,-3,-0.0381785,0,0
3.9,6.85583,4.37047,5.1339,0.34037,-3,-0.0310867,0,0
3.92,6.85974,4.37047,5.13781,0.28037,-3,-0.0269884,0,0
3.94,6.86364,4.37047,5.14171,0.22037,-3,-0.0228902,0,0
3.96,6.86754,4.37047,5.14561,0.16037,-3,-0.018792,0,0
3.98,6.87145,4.37047,5.14952,0.10037,-3,-0.0146937,0,0
4,6.87535,4.37047,5.15342,0.0403704,-3,-0.0105955,0,0
