"time","x","y","position","velocity","acceleration","heading","curvature","rotation"
0,14.6987,3.8987,0,0,4,180,0,0
0.02,14.6942,3.8987,0.00450777,0.08,4,179.964,0,0
0.04,14.6897,3.89871,0.00901554,0.16,4,179.928,0,0
0.06,14.6851,3.89871,0.0135233,0.24,4,179.892,0,0
0.08,14.6806,3.89872,0.0180311,0.32,4,179.856,0,0
0.1,14.6761,3.89873,0.0225389,0.4,4,179.819,0,0
0.12,14.6693,3.89876,0.0293753,0.48,4,179.711,0,0
0.14,14.6584,3.89885,0.040258,0.56,4,179.477,0,0
0.16,14.6474,3.89895,0.0512441,0.64,4,179.235,0,0
0.18,14.6332,3.89924,0.0654267,0.72,4,178.742,0,0
0.2,14.6184,3.89962,0.0802441,0.8,4,178.174,0,0
0.22,14.6016,3.90028,0.0970672,0.88,4,177.366,0,0
0.24,14.5832,3.90133,0.11555,0.96,4,176.287,0,0
0.26,14.5633,3.90284,0.135457,1.04,4,174.937,0,0
0.28,14.542,3.90501,0.156944,1.12,4,173.234,0,0
0.3,14.519,3.90811,0.180069,1.2,4,171.091,0,0
0.32,14.4947,3.9125,0.204846,1.28,4,168.411,0,0
0.34,14.469,3.91884,0.231264,1.36,4,165.04,0,0
0.36,14.4422,3.92709,0.2593,1.44,4,161.048,0,0
0.38,14.4146,3.93781,0.28893,1.52,4,156.402,0,0
0.4,14.3867,3.95161,0.32012,1.6,4,151.098,0,0
0.42,14.3587,3.96853,0.352842,1.68,4,145.285,0,0
0.44,14.3317,3.98985,0.387279,1.76,4,139.209,0,0
0.46,14.3058,4.01476,0.423284,1.84,4,133.186,0,0
0.48,14.2812,4.04312,0.460846,1.92,4,127.415,0,0
0.5,14.259,4.07542,0.500068,2,4,122.338,0,0
0.52,14.2384,4.11061,0.540863,2.08,4,117.883,0,0
0.54,14.2199,4.14865,0.583206,2.16,4,114.192,0,0
0.56,14.203,4.18934,0.627253,2.24,4,111.231,0,0
0.58,14.1874,4.23219,0.67286,2.32,4,108.878,0,0
0.6,14.1729,4.27708,0.720052,2.4,4,107.091,0,0
0.62,14.1591,4.32388,0.768843,2.48,4,105.876,0,0
0.64,14.1456,4.37244,0.819239,2.56,4,105.198,0,0
0.66,14.1321,4.42265,0.87124,2.64,4,105.041,0,0
0.68,14.118,4.47438,0.924843,2.72,4,105.495,0,0
0.7,14.1028,4.52743,0.98004,2.8,4,106.613,0,0
0.72,14.0858,4.58161,1.03682,2.88,4,108.518,0,0
0.74,14.0658,4.63648,1.09522,2.96,4,111.536,0,0
0.76,14.0417,4.69142,1.15523,3.04,4,115.98,0,0
0.78,14.012,4.74532,1.21681,3.12,4,122.255,0,0
0.8,13.9745,4.79607,1.28003,3.2,4,130.932,0,0
0.82,13.9279,4.84096,1.3448,3.28,4,141.783,0,0
0.84,13.8718,4.87624,1.41123,3.36,4,153.583,0,0
0.86,13.8085,4.90056,1.47922,3.44,4,164.202,0,0
0.88,13.7404,4.91455,1.5488,3.52,4,172.25,0,0
0.9,13.6696,4.92057,1.61986,3.55647,-3.93084,177.346,0,0
0.92,13.5993,4.92208,1.69019,3.47696,-4,179.694,0,0
0.94,13.5306,4.92221,1.75893,3.39696,-4,179.866,0,0
0.96,13.4634,4.92265,1.82608,3.31696,-4,179.314,0,0
0.98,13.3979,4.92393,1.8916,3.23696,-4,178.354,0,0
1,13.334,4.92644,1.95557,3.15696,-4,177.042,0,0
1.02,13.2718,4.93053,2.01788,3.07696,-4,175.417,0,0
1.04,13.2114,4.93634,2.07863,2.99696,-4,173.572,0,0
1.06,13.1527,4.94396,2.13777,2.91696,-4,171.623,0,0
1.08,13.096,4.95324,2.19529,2.83696,-4,169.756,0,0
1.1,13.0411,4.96398,2.25123,2.75696,-4,168.209,0,0
1.12,12.988,4.9756,2.30558,2.67696,-4,167.203,0,0
1.14,12.9366,4.98747,2.35833,2.59696,-4,166.877,0,0
1.16,12.8867,4.99897,2.40947,2.51696,-4,167.255,0,0
1.18,12.8384,5.00953,2.459,2.43696,-4,168.193,0,0
1.2,12.7913,5.01881,2.50692,2.35696,-4,169.499,0,0
1.22,12.7457,5.02667,2.55324,2.27696,-4,170.97,0,0
1.24,12.7014,5.0331,2.59799,2.19696,-4,172.457,0,0
1.26,12.6585,5.03833,2.64118,2.11696,-4,173.869,0,0
1.28,12.6172,5.04219,2.68265,2.03696,-4,175.121,0,0
1.3,12.5774,5.04525,2.7226,1.95696,-4,176.235,0,0
1.32,12.5392,5.04742,2.76093,1.87696,-4,177.17,0,0
1.34,12.5024,5.04896,2.79768,1.79696,-4,177.95,0,0
1.36,12.4674,5.05002,2.83277,1.71696,-4,178.585,0,0
1.38,12.4338,5.05069,2.86637,1.63696,-4,179.084,0,0
1.4,12.4018,5.05112,2.89829,1.55696,-4,179.476,0,0
1.42,12.3716,5.0513,2.92856,1.47696,-4,179.73,0,0
1.44,12.3429,5.0514,2.95727,1.39696,-4,179.899,0,0
1.46,12.3158,5.05142,2.98439,1.31696,-1.91869,179.969,0,0
1.48,12.2898,5.05143,3.01035,1.28,0,179.984,0,-0.0671841
1.5,12.2642,5.05145,3.03595,1.28,0,179.937,0,-0.268736
1.52,12.2386,5.0515,3.06155,1.28,0,179.856,0,-0.604656
1.54,12.213,5.05158,3.08715,1.28,0,179.745,0,-1.07494
1.56,12.1874,5.05173,3.11275,1.28,0,179.611,0,-1.6796
1.58,12.1618,5.05193,3.13835,1.28,0,179.454,0,-2.41863
1.6,12.1362,5.05221,3.16395,1.28,0,179.28,0,-3.29202
1.62,12.1106,5.05257,3.18955,1.28,0,179.091,0,-4.29978
1.64,12.085,5.05303,3.21515,1.28,0,178.891,0,-5.44191
1.66,12.0594,5.05357,3.24075,1.28,0,178.685,0,-6.71841
1.68,12.0338,5.05421,3.26635,1.28,0,178.478,0,-8.12927
1.7,12.0082,5.05493,3.29195,1.28,0,178.272,0,-9.6745
1.72,11.9826,5.05575,3.31755,1.28,0,178.072,0,-11.3541
1.74,11.9571,5.05665,3.34315,1.28,0,177.883,0,-13.1681
1.76,11.9315,5.05763,3.36875,1.28,0,177.709,0,-15.1164
1.78,11.9059,5.05869,3.39435,1.28,0,177.558,0,-17.1991
1.8,11.8803,5.05981,3.41995,1.28,0,177.434,0,-19.4162
1.82,11.8547,5.06098,3.44555,1.28,0,177.344,0,-21.7676
1.84,11.8292,5.06218,3.47115,1.28,0,177.292,0,-24.2534
1.86,11.8036,5.06339,3.49675,1.28,0,177.288,0,-26.8736
1.88,11.778,5.06459,3.52235,1.28,0,177.337,0,-29.6282
1.9,11.7525,5.06576,3.54795,1.28,0,177.448,0,-32.5171
1.92,11.7269,5.06683,3.57355,1.28,0,177.648,0,-35.5404
1.94,11.7013,5.06784,3.59915,1.28,0,177.907,0,-38.698
1.96,11.6757,5.06868,3.62475,1.28,0,178.266,0,-41.99
1.98,11.6501,5.06939,3.65035,1.28,0,178.705,0,-45.4164
2,11.6245,5.06982,3.67595,1.28,0,179.275,0,-48.9772
2.02,11.5989,5.07006,3.70155,1.28,0,179.928,0,-52.6723
2.04,11.5733,5.06985,3.72715,1.28,0,-179.251,0,-56.5018
2.06,11.5477,5.06943,3.75275,1.28,0,-178.351,0,-60.4656
2.08,11.5222,5.06835,3.77835,1.28,0,-177.249,0,-64.5639
2.1,11.4966,5.06691,3.80395,1.28,0,-176.046,0,-68.7965
2.12,11.4711,5.0648,3.82955,1.28,0,-174.676,0,-73.0935
2.14,11.4456,5.06209,3.85515,1.28,0,-173.177,0,-77.2666
2.16,11.4203,5.05876,3.88075,1.28,0,-171.554,0,-81.3054
2.18,11.395,5.05453,3.90635,1.28,0,-169.792,0,-85.2098
2.2,11.3699,5.04982,3.93195,1.28,0,-167.96,0,-88.9798
2.22,11.345,5.04385,3.95755,1.28,0,-166.008,0,-92.6155
2.24,11.3202,5.03731,3.98315,1.28,0,-164.019,0,-96.1167
2.26,11.2958,5.02978,4.00875,1.28,0,-161.993,0,-99.4836
2.28,11.2716,5.02141,4.03435,1.28,0,-159.971,0,-102.716
2.3,11.2476,5.01232,4.05995,1.28,0,-157.961,0,-105.814
2.32,11.2241,5.00218,4.08555,1.28,0,-156.016,0,-108.778
2.34,11.2008,4.9916,4.11115,1.28,0,-154.103,0,-111.608
2.36,11.1781,4.97985,4.13675,1.28,0,-152.323,0,-114.303
2.38,11.1555,4.9678,4.16235,1.28,0,-150.583,0,-116.863
2.4,11.1335,4.95474,4.18795,1.28,0,-149.005,0,-119.29
2.42,11.1116,4.9414,4.21355,1.28,0,-147.477,0,-121.582
2.44,11.0903,4.92723,4.23915,1.28,0,-146.113,0,-123.739
2.46,11.0691,4.91288,4.26475,1.28,0,-144.79,0,-125.763
2.48,11.0484,4.89792,4.29035,1.28,0,-143.607,0,-127.651
2.5,11.0279,4.88254,4.31595,1.28,0,-142.529,0,-129.406
2.52,11.0077,4.8668,4.34155,1.28,0,-141.548,0,-131.026
2.54,10.9878,4.85073,4.36715,1.28,0,-140.662,0,-132.512
2.56,10.9681,4.83435,4.39275,1.28,0,-139.87,0,-133.863
2.58,10.9486,4.81772,4.41835,1.28,0,-139.162,0,-135.08
2.6,10.9294,4.80086,4.44395,1.28,0,-138.533,0,-136.163
2.62,10.9103,4.78381,4.46955,1.28,0,-137.978,0,-137.111
2.64,10.8913,4.76659,4.49515,1.28,0,-137.496,0,-137.925
2.66,10.8725,4.74923,4.52075,1.28,0,-137.083,0,-138.605
2.68,10.8538,4.73175,4.54635,1.28,0,-136.736,0,-139.15
2.7,10.8352,4.71416,4.57195,1.28,0,-136.457,0,-139.561
2.72,10.8167,4.69648,4.59755,1.28,0,-136.254,0,-139.837
2.74,10.7982,4.67875,4.62315,1.28,0.170201,-136.114,0,-139.979
2.76,10.7798,4.66097,4.64878,1.284,4,-136.038,0,-140
2.78,10.7607,4.64256,4.67528,1.364,4,-135.99,0,-140
2.8,10.7405,4.62302,4.7034,1.444,4,-135.915,0,-139.996
2.82,10.7192,4.60231,4.73312,1.524,4,-135.732,0,-139.984
2.84,10.6968,4.58043,4.76439,1.604,4,-135.468,0,-139.964
2.86,10.6735,4.55736,4.79719,1.684,4,-135.098,0,-139.937
2.88,10.6492,4.53289,4.8317,1.764,4,-134.604,0,-139.901
2.9,10.624,4.50707,4.86779,1.844,4,-133.999,0,-139.858
2.92,10.598,4.47985,4.90543,1.924,4,-133.274,0,-139.806
2.94,10.5713,4.45102,4.94474,2.004,4,-132.432,0,-139.747
2.96,10.5439,4.42063,4.98561,2.084,3.92108,-131.526,0,-139.68
2.98,10.516,4.38868,5.02802,2.16106,-3.86375,-130.629,0,-139.605
3,10.4887,4.35633,5.0704,2.08268,-4,-129.923,0,-139.522
3.02,10.4626,4.32489,5.11125,2.00268,-4,-129.573,0,-139.431
3.04,10.4376,4.29461,5.15052,1.92268,-4,-129.584,0,-139.332
3.06,10.4135,4.26569,5.18815,1.84268,-4,-129.993,0,-139.225
3.08,10.3902,4.23816,5.22419,1.76268,-4,-130.625,0,-139.111
3.1,10.3676,4.21211,5.2587,1.68268,-4,-131.455,0,-138.988
3.12,10.3457,4.18774,5.29147,1.60268,-4,-132.345,0,-138.867
3.14,10.3245,4.16481,5.3227,1.52268,-4,-133.213,0,-138.754
3.16,10.304,4.14333,5.35238,1.44268,-4,-134.013,0,-138.649
3.18,10.2844,4.12326,5.38046,1.36268,-4,-134.723,0,-138.552
3.2,10.2656,4.10456,5.40693,1.28268,-4,-135.339,0,-138.462
3.22,10.2479,4.08719,5.43176,1.20268,-4,-135.865,0,-138.381
3.24,10.2312,4.0711,5.45494,1.12268,-4,-136.31,0,-138.307
3.26,10.2156,4.05627,5.47649,1.04268,-4,-136.672,0,-138.241
3.28,10.201,4.04262,5.49647,0.962679,-4,-136.968,0,-138.184
3.3,10.1874,4.02998,5.51503,0.882679,-4,-137.213,0,-138.134
3.32,10.175,4.01857,5.53185,0.802679,-4,-137.409,0,-138.092
3.34,10.164,4.0085,5.54676,0.722679,-4,-137.56,0,-138.057
3.36,10.1536,3.99892,5.56094,0.642679,-4,-137.696,0,-138.031
3.38,10.1454,3.99147,5.57204,0.562679,-4,-137.766,0,-138.013
3.4,10.1373,3.98416,5.58292,0.482679,-4,-137.832,0,-138.003
3.42,10.1321,3.97943,5.58997,0.402679,-4,-137.868,0,-138
3.44,10.1287,3.97641,5.59448,0.322679,-4,-137.885,0,-138
3.46,10.1254,3.97339,5.59898,0.242679,-4,-137.902,0,-138
3.48,10.122,3.97037,5.60349,0.162679,-4,-137.919,0,-138
3.5,10.1187,3.96735,5.608,0.0826786,-4,-137.936,0,-138
3.52,10.1153,3.96433,5.61251,0.00267861,-4,-137.953,0,-138
