"time","x","y","position","velocity","acceleration","heading","curvature","rotation"
0,9.62795,4.79327,0,0,4,-1.40334e-14,0,180
0.02,9.63246,4.79327,0.00450777,0.08,4,0.00224624,0,179.948
0.04,9.63697,4.79327,0.00901554,0.16,4,0.00449247,0,179.791
0.06,9.64147,4.79327,0.0135233,0.24,4,0.00673871,0,179.529
0.08,9.64598,4.79327,0.0180311,0.32,4,0.00898494,0,179.162
0.1,9.65049,4.79327,0.0225389,0.4,4,0.0112312,0,178.691
0.12,9.65733,4.79327,0.0293753,0.48,4,0.0151131,0,178.115
0.14,9.66821,4.79328,0.040258,0.56,4,0.021837,0,177.434
0.16,9.67919,4.79328,0.0512441,0.64,4,0.0289909,0,176.649
0.18,9.69338,4.79329,0.0654267,0.72,4,0.0494448,0,175.759
0.2,9.70819,4.79331,0.0802441,0.8,4,0.0717301,0,174.764
0.22,9.72502,4.79333,0.0970674,0.88,4,0.0998023,0,173.664
0.24,9.7435,4.79337,0.11555,0.96,4,0.139745,0,172.46
0.26,9.76341,4.79343,0.135457,1.04,4,0.188731,0,171.15
0.28,9.78489,4.79351,0.156944,1.12,4,0.247945,0,169.737
0.3,9.80802,4.79362,0.180069,1.2,4,0.321768,0,168.218
0.32,9.83279,4.79378,0.204845,1.28,4,0.411133,0,166.595
0.34,9.85921,4.79399,0.231263,1.36,4,0.516661,0,164.867
0.36,9.88725,4.79428,0.2593,1.44,4,0.643497,0,163.034
0.38,9.91687,4.79465,0.28893,1.52,4,0.789034,0,161.097
0.4,9.94806,4.79512,0.320122,1.6,4,0.958495,0,159.054
0.42,9.98078,4.79573,0.352845,1.68,4,1.1532,0,156.907
0.44,10.0151,4.79648,0.387204,1.74992,0.86891,1.37452,0,154.656
0.46,10.0503,4.79741,0.422363,1.7625,0,1.62121,0,152.299
0.48,10.0855,4.79846,0.457613,1.7625,0,1.88353,0,149.838
0.5,10.1207,4.79973,0.492863,1.7625,0,2.16982,0,147.272
0.52,10.156,4.80115,0.528113,1.7625,0,2.47131,0,144.602
0.54,10.1912,4.80276,0.563363,1.7625,0,2.79061,0,141.827
0.56,10.2264,4.80459,0.598613,1.7625,0,3.12715,0,138.947
0.58,10.2616,4.8066,0.633863,1.7625,0,3.47803,0,135.962
0.6,10.2967,4.80887,0.669113,1.7625,0,3.84614,0,132.872
0.62,10.3319,4.81133,0.704363,1.7625,0,4.22534,0,129.678
0.64,10.3671,4.81406,0.739613,1.7625,0,4.61689,0,126.379
0.66,10.4022,4.81701,0.774863,1.7625,0,5.01678,0,122.976
0.68,10.4373,4.82022,0.810113,1.7625,0,5.42261,0,119.467
0.7,10.4724,4.82368,0.845363,1.7625,0,5.83086,0,115.854
0.72,10.5074,4.82738,0.880613,1.7625,0,6.23773,0,112.136
0.74,10.5424,4.83134,0.915863,1.7625,0,6.63824,0,108.314
0.76,10.5774,4.83553,0.951113,1.7625,0,7.02783,0,104.386
0.78,10.6124,4.83996,0.986363,1.7625,0,7.40012,0,100.354
0.8,10.6474,4.84461,1.02161,1.7625,0,7.74934,0,96.2175
0.82,10.6823,4.84945,1.05686,1.7625,0,8.07076,0,91.976
0.84,10.7172,4.85449,1.09211,1.7625,0,8.35619,0,87.6751
0.86,10.752,4.85969,1.12736,1.7625,0,8.59848,0,83.4667
0.88,10.7869,4.86502,1.16261,1.7625,0,8.79837,0,79.3629
0.9,10.8217,4.87046,1.19786,1.7625,0,8.94185,0,75.3639
0.92,10.8565,4.87597,1.23311,1.7625,0,9.03205,0,71.4696
0.94,10.8913,4.88152,1.26836,1.7625,0,9.07251,0,67.6801
0.96,10.9261,4.88707,1.30361,1.7625,0,9.04166,0,63.9953
0.98,10.9609,4.89259,1.33886,1.7625,0,8.96035,0,60.4152
1,10.9958,4.89805,1.37411,1.7625,0,8.82891,0,56.9398
1.02,11.0306,4.90339,1.40936,1.7625,0,8.63424,0,53.5692
1.04,11.0655,4.90862,1.44461,1.7625,0,8.39914,0,50.3033
1.06,11.1004,4.91369,1.47986,1.7625,0,8.12198,0,47.1421
1.08,11.1353,4.91856,1.51511,1.7625,0,7.8045,0,44.0856
1.1,11.1702,4.92326,1.55036,1.7625,0,7.46102,0,41.1339
1.12,11.2052,4.92772,1.58561,1.7625,0,7.09175,0,38.2869
1.14,11.2402,4.93194,1.62086,1.7625,0,6.70395,0,35.5446
1.16,11.2752,4.93595,1.65611,1.7625,0,6.30542,0,32.9071
1.18,11.3102,4.93968,1.69136,1.7625,0,5.89899,0,30.3743
1.2,11.3453,4.9432,1.72661,1.7625,0,5.49071,0,27.9462
1.22,11.3804,4.94643,1.76186,1.7625,0,5.08425,0,25.6228
1.24,11.4155,4.94943,1.79711,1.7625,0,4.68321,0,23.4042
1.26,11.4507,4.9522,1.83236,1.7625,0,4.28987,0,21.2903
1.28,11.4858,4.9547,1.86761,1.7625,0,3.90872,0,19.2811
1.3,11.521,4.957,1.90286,1.7625,0,3.53876,0,17.3767
1.32,11.5562,4.95906,1.93811,1.7625,0,3.18474,0,15.577
1.34,11.5914,4.96091,1.97336,1.7625,0,2.84571,0,13.882
1.36,11.6266,4.96257,2.00861,1.7625,0,2.52298,0,12.2917
1.38,11.6618,4.96402,2.04386,1.7625,0,2.21903,0,10.8062
1.4,11.6971,4.96531,2.07911,1.7625,0,1.9298,0,9.4254
1.42,11.7323,4.96639,2.11436,1.7625,0,1.66409,0,8.14933
1.44,11.7675,4.96734,2.14961,1.7625,0,1.41416,0,6.97798
1.46,11.8028,4.96814,2.18486,1.7625,0,1.18336,0,5.91136
1.48,11.838,4.9688,2.22011,1.7625,0,0.972515,0,4.94947
1.5,11.8733,4.96935,2.25536,1.7625,0,0.77874,0,4.0923
1.52,11.9085,4.96976,2.29061,1.7625,0,0.609834,0,3.33987
1.54,11.9438,4.97009,2.32586,1.7625,0,0.45804,0,2.69216
1.56,11.979,4.97034,2.36111,1.7625,0,0.325852,0,2.14918
1.58,12.0143,4.9705,2.39636,1.7625,0,0.217896,0,1.71093
1.6,12.0495,4.97061,2.43161,1.7625,0,0.129185,0,1.37741
1.62,12.0848,4.97066,2.46686,1.7625,0,0.064334,0,1.14861
1.64,12.12,4.97069,2.50211,1.7625,0,0.022889,0,1.02455
1.66,12.1553,4.9707,2.53736,1.7625,3.5857,0.0026165,0,1
1.68,12.1913,4.97069,2.57338,1.83653,4,-0.0200394,0,0.994072
1.7,12.2288,4.97067,2.61089,1.91653,4,-0.0677686,0,0.976288
1.72,12.2679,4.97059,2.65003,1.99653,4,-0.155575,0,0.946648
1.74,12.3086,4.97044,2.69071,2.07653,4,-0.281943,0,0.905152
1.76,12.351,4.97017,2.73309,2.15653,4,-0.451265,0,0.8518
1.78,12.3949,4.96974,2.77701,2.23653,4,-0.667813,0,0.786592
1.8,12.4404,4.96912,2.82251,2.31653,4,-0.92658,0,0.709528
1.82,12.4875,4.96823,2.86962,2.39653,4,-1.2321,0,0.620608
1.84,12.5362,4.96705,2.91836,2.47653,4,-1.56688,0,0.519832
1.86,12.5865,4.96552,2.9687,2.55653,4,-1.90202,0,0.415094
1.88,12.6384,4.96366,3.02062,2.63653,4,-2.18344,0,0.321812
1.9,12.6919,4.96154,3.07414,2.71653,4,-2.34624,0,0.240385
1.92,12.747,4.95927,3.12929,2.79653,4,-2.32646,0,0.170815
1.94,12.8037,4.95707,3.18599,2.86729,-0.830939,-2.1113,0,0.1131
1.96,12.8606,4.95513,3.24298,2.81535,-4,-1.77264,0,0.0672419
1.98,12.9161,4.95359,3.2985,2.73535,-4,-1.39315,0,0.0332395
2,12.97,4.95245,3.35243,2.65535,-4,-1.03316,0,0.011093
2.02,13.0223,4.95165,3.40473,2.57535,-4,-0.720339,0,0.000802583
2.04,13.073,4.95113,3.45543,2.49535,-4,-0.465179,0,-1.40334e-14
2.06,13.1221,4.95083,3.50454,2.41535,-4,-0.270097,0,-1.40334e-14
2.08,13.1696,4.95066,3.55203,2.33535,-4,-0.128675,0,-1.40334e-14
2.1,13.2155,4.9506,3.59791,2.25535,-4,-0.0400098,0,-1.40334e-14
2.12,13.2598,4.95058,3.64221,2.17535,-4,-0.0480159,0,-1.40334e-14
2.14,13.3026,4.95046,3.68496,2.09535,-4,-0.493196,0,-1.40334e-14
2.16,13.3436,4.94952,3.72602,2.01535,-1.22399,-2.06786,0,-1.40334e-14
2.18,13.3836,4.94741,3.76611,2,0,-4.4361,0,-1.40334e-14
2.2,13.4234,4.94308,3.80611,2,0,-7.83859,0,-1.40334e-14
2.22,13.4628,4.93629,3.84611,2,0,-12.0648,0,-1.40334e-14
2.24,13.5015,4.92643,3.88611,2,0,-17.0557,0,-1.40334e-14
2.26,13.5391,4.91262,3.92611,2,0,-22.5867,0,-1.40334e-14
2.28,13.5752,4.89562,3.96611,2,0,-28.1671,0,-1.40334e-14
2.3,13.6096,4.87522,4.00611,2,0,-33.3728,0,-1.40334e-14
2.32,13.6421,4.85187,4.04611,2,0,-37.6657,0,-1.40334e-14
2.34,13.673,4.8265,4.08611,2,0,-40.8397,0,-1.40334e-14
2.36,13.7027,4.79978,4.12611,2,0,-42.6949,0,-1.40334e-14
2.38,13.7319,4.77246,4.16611,1.99913,-2.78866,-43.3385,0,-1.40334e-14
2.4,13.7607,4.74565,4.20543,1.93465,-4,-42.4816,0,-1.40334e-14
2.42,13.7891,4.72046,4.24338,1.85465,-4,-40.4801,0,-1.40334e-14
2.44,13.8173,4.69774,4.27959,1.77465,-4,-37.4415,0,-1.40334e-14
2.46,13.8454,4.67739,4.31434,1.69465,-4,-33.744,0,-1.40334e-14
2.48,13.8735,4.65994,4.34741,1.61465,-4,-29.5736,0,-1.40334e-14
2.5,13.9014,4.64557,4.37884,1.53465,-4,-25.233,0,-1.40334e-14
2.52,13.9289,4.63396,4.40872,1.45465,-4,-21.0364,0,-1.40334e-14
2.54,13.9557,4.62473,4.43702,1.37465,-4,-17.1746,0,-1.40334e-14
2.56,13.9814,4.61756,4.46371,1.29465,-4,-13.7399,0,-1.40334e-14
2.58,14.0058,4.61214,4.48878,1.21465,-4,-10.774,0,-1.40334e-14
2.6,14.029,4.60835,4.51222,1.13465,-4,-8.35006,0,-1.40334e-14
2.62,14.0506,4.60566,4.53404,1.05465,-4,-6.37127,0,-1.40334e-14
2.64,14.0708,4.60369,4.55432,0.974651,-4,-4.7389,0,-1.40334e-14
2.66,14.0896,4.60224,4.57322,0.894651,-4,-3.38435,0,-1.40334e-14
2.68,14.1064,4.60143,4.59004,0.814651,-4,-2.41666,0,-1.40334e-14
2.7,14.1217,4.6009,4.60535,0.734651,-4,-1.68575,0,-1.40334e-14
2.72,14.1359,4.60058,4.61953,0.654651,-4,-1.12892,0,-1.40334e-14
2.74,14.1475,4.60041,4.63112,0.574651,-4,-0.783216,0,-1.40334e-14
2.76,14.1584,4.60027,4.642,0.494651,-4,-0.495172,0,-1.40334e-14
2.78,14.1664,4.6002,4.65001,0.414651,-4,-0.311432,0,-1.40334e-14
2.8,14.1709,4.60018,4.65451,0.334651,-4,-0.254365,0,-1.40334e-14
2.82,14.1754,4.60017,4.65902,0.254651,-4,-0.197299,0,-1.40334e-14
2.84,14.1799,4.60016,4.66353,0.174651,-4,-0.140232,0,-1.40334e-14
2.86,14.1844,4.60015,4.66804,0.0946507,-4,-0.0831653,0,-1.40334e-14
2.88,14.1889,4.60013,4.67254,0.0146507,-4,-0.0260986,0,-1.40334e-14
