"time","x","y","position","velocity","acceleration","heading","curvature","rotation"
0,9.54608,4.99997,0,0,4,-1.40334e-14,0,180
0.02,9.55059,4.99997,0.00450777,0.08,4,-0.000349394,0,179.949
0.04,9.5551,4.99997,0.00901554,0.16,4,-0.000698788,0,179.794
0.06,9.5596,4.99997,0.0135233,0.24,4,-0.00104818,0,179.538
0.08,9.56411,4.99997,0.0180311,0.32,4,-0.00139758,0,179.178
0.1,9.56862,4.99997,0.0225389,0.4,4,-0.00174697,0,178.716
0.12,9.57546,4.99997,0.0293753,0.48,4,-0.00231812,0,178.15
0.14,9.58634,4.99997,0.040258,0.56,4,-0.00327458,0,177.483
0.16,9.59732,4.99997,0.0512441,0.64,4,-0.00430071,0,176.712
0.18,9.61151,4.99997,0.0654267,0.72,4,-0.00748198,0,175.839
0.2,9.62632,4.99996,0.0802441,0.8,4,-0.0108862,0,174.862
0.22,9.64315,4.99996,0.0970674,0.88,4,-0.0149951,0,173.783
0.24,9.66163,4.99995,0.11555,0.96,4,-0.0211374,0,172.602
0.26,9.68154,4.99995,0.135457,1.04,4,-0.0285725,0,171.317
0.28,9.70302,4.99993,0.156944,1.12,4,-0.037414,0,169.93
0.3,9.72615,4.99992,0.180069,1.2,4,-0.0488297,0,168.44
0.32,9.75093,4.99989,0.204845,1.28,4,-0.0620887,0,166.848
0.34,9.77734,4.99986,0.231263,1.36,4,-0.0784044,0,165.152
0.36,9.80538,4.99982,0.2593,1.44,4,-0.09737,0,163.354
0.38,9.83501,4.99976,0.28893,1.52,4,-0.119623,0,161.453
0.4,9.8662,4.99969,0.320122,1.6,4,-0.145172,0,159.45
0.42,9.89893,4.9996,0.352845,1.68,4,-0.174591,0,157.343
0.44,9.93335,4.99948,0.387271,1.75922,2.84644,-0.207971,0,155.134
0.46,9.96906,4.99934,0.422979,1.8,0,-0.245821,0,152.822
0.48,10.0051,4.99917,0.458979,1.8,0,-0.28702,0,150.407
0.5,10.0411,4.99898,0.494979,1.8,0,-0.330985,0,147.89
0.52,10.0771,4.99876,0.530979,1.8,0,-0.377826,0,145.27
0.54,10.1131,4.99851,0.566979,1.8,0,-0.427409,0,142.547
0.56,10.1491,4.99822,0.602979,1.8,0,-0.479734,0,139.721
0.58,10.1851,4.9979,0.638979,1.8,0,-0.534781,0,136.793
0.6,10.2211,4.99755,0.674979,1.8,0,-0.592072,0,133.762
0.62,10.257,4.99716,0.710979,1.8,0,-0.651644,0,130.628
0.64,10.293,4.99673,0.746979,1.8,0,-0.71311,0,127.391
0.66,10.329,4.99626,0.782979,1.8,0,-0.776234,0,124.051
0.68,10.365,4.99576,0.818979,1.8,0,-0.840451,0,120.609
0.7,10.401,4.9952,0.854979,1.8,0,-0.905492,0,117.064
0.72,10.437,4.99462,0.890979,1.8,0,-0.970644,0,113.417
0.74,10.473,4.99399,0.926979,1.8,0,-1.03514,0,109.666
0.76,10.509,4.99332,0.962979,1.8,0,-1.09856,0,105.813
0.78,10.545,4.99261,0.998979,1.8,0,-1.15951,0,101.857
0.8,10.581,4.99186,1.03498,1.8,0,-1.21747,0,97.7983
0.82,10.617,4.99108,1.07098,1.8,0,-1.27174,0,93.6369
0.84,10.653,4.99026,1.10698,1.8,0,-1.31993,0,89.3797
0.86,10.689,4.98942,1.14298,1.8,0,-1.36327,0,85.1694
0.88,10.725,4.98855,1.17898,1.8,0,-1.39837,0,81.0617
0.9,10.761,4.98767,1.21498,1.8,0,-1.42592,0,77.0569
0.92,10.7969,4.98676,1.25098,1.8,0,-1.44536,0,73.1548
0.94,10.8329,4.98585,1.28698,1.8,0,-1.45497,0,69.3554
0.96,10.8689,4.98494,1.32298,1.8,0,-1.45574,0,65.6588
0.98,10.9049,4.98402,1.35898,1.8,0,-1.44709,0,62.065
1,10.9409,4.98312,1.39498,1.8,0,-1.42915,0,58.5739
1.02,10.9769,4.98223,1.43098,1.8,0,-1.40234,0,55.1855
1.04,11.0129,4.98136,1.46698,1.8,0,-1.36814,0,51.9
1.06,11.0489,4.98051,1.50298,1.8,0,-1.32606,0,48.7171
1.08,11.0849,4.97969,1.53898,1.8,0,-1.27816,0,45.637
1.1,11.1208,4.97891,1.57498,1.8,0,-1.22508,0,42.6597
1.12,11.1568,4.97816,1.61098,1.8,0,-1.16727,0,39.7851
1.14,11.1928,4.97744,1.64698,1.8,0,-1.10675,0,37.0133
1.16,11.2288,4.97677,1.68298,1.8,0,-1.04357,0,34.3442
1.18,11.2648,4.97613,1.71898,1.8,0,-0.979171,0,31.7779
1.2,11.3008,4.97554,1.75498,1.8,0,-0.914062,0,29.3143
1.22,11.3368,4.97498,1.79098,1.8,0,-0.849003,0,26.9535
1.24,11.3728,4.97447,1.82698,1.8,0,-0.784607,0,24.6954
1.26,11.4088,4.974,1.86298,1.8,0,-0.721342,0,22.5401
1.28,11.4448,4.97356,1.89898,1.8,0,-0.659675,0,20.4875
1.3,11.4808,4.97317,1.93498,1.8,0,-0.599724,0,18.5377
1.32,11.5168,4.97281,1.97098,1.8,0,-0.542258,0,16.6906
1.34,11.5528,4.97248,2.00698,1.8,0,-0.486578,0,14.9463
1.36,11.5888,4.9722,2.04298,1.8,0,-0.434268,0,13.3048
1.38,11.6248,4.97194,2.07898,1.8,0,-0.384182,0,11.766
1.4,11.6608,4.97171,2.11498,1.8,0,-0.336987,0,10.3299
1.42,11.6968,4.97152,2.15098,1.8,0,-0.292695,0,8.9966
1.44,11.7328,4.97134,2.18698,1.8,0,-0.250771,0,7.76605
1.46,11.7688,4.9712,2.22298,1.8,0,-0.212708,0,6.63825
1.48,11.8048,4.97108,2.25898,1.8,0,-0.177247,0,5.61321
1.5,11.8408,4.97098,2.29498,1.8,0,-0.144831,0,4.69091
1.52,11.8768,4.9709,2.33098,1.8,0,-0.115538,0,3.87137
1.54,11.9128,4.97083,2.36698,1.8,0,-0.0892623,0,3.15458
1.56,11.9488,4.97078,2.40298,1.8,0,-0.0662976,0,2.54054
1.58,11.9848,4.97075,2.43898,1.8,0,-0.0466082,0,2.02926
1.6,12.0208,4.97072,2.47498,1.8,0,-0.0301724,0,1.62073
1.62,12.0568,4.97071,2.51098,1.8,0,-0.0168665,0,1.31494
1.64,12.0928,4.9707,2.54698,1.8,0,-0.00799588,0,1.11191
1.66,12.1288,4.9707,2.58298,1.8,2.76831,-0.00247164,0,1.01164
1.68,12.1653,4.9707,2.61951,1.86262,4,-0.00278574,0,1
1.7,12.2034,4.97069,2.6576,1.94262,4,-0.0320419,0,0.994072
1.72,12.243,4.97065,2.69722,2.02262,4,-0.0947084,0,0.976288
1.74,12.2843,4.97054,2.73847,2.10262,4,-0.201258,0,0.946648
1.76,12.3272,4.97033,2.78135,2.18262,4,-0.352941,0,0.905152
1.78,12.3716,4.96999,2.82578,2.26262,4,-0.547197,0,0.8518
1.8,12.4176,4.96946,2.8718,2.34262,4,-0.792702,0,0.786592
1.82,12.4653,4.96869,2.91945,2.42262,4,-1.08376,0,0.709528
1.84,12.5145,4.96761,2.96871,2.50262,4,-1.41666,0,0.620608
1.86,12.5653,4.9662,3.01956,2.58262,4,-1.76556,0,0.519832
1.88,12.6177,4.96443,3.072,2.66262,4,-2.0839,0,0.415094
1.9,12.6718,4.96235,3.12606,2.74262,4,-2.3023,0,0.321812
1.92,12.7274,4.96008,3.18173,2.82262,2.6649,-2.35205,0,0.240385
1.94,12.784,4.9578,3.23843,2.82182,-4,-2.20528,0,0.170815
1.96,12.8396,4.95581,3.29407,2.74182,-4,-1.90715,0,0.1131
1.98,12.8937,4.95417,3.34811,2.66182,-4,-1.54868,0,0.0672419
2,12.9461,4.95292,3.40056,2.58182,-4,-1.18946,0,0.0332395
2.02,12.9969,4.95201,3.45139,2.50182,-4,-0.866894,0,0.011093
2.04,13.0461,4.95139,3.50062,2.42182,-4,-0.59576,0,0.000802583
2.06,13.0938,4.95098,3.54824,2.34182,-4,-0.376632,0,-1.40334e-14
2.08,13.1398,4.95076,3.59426,2.26182,-4,-0.212861,0,-1.40334e-14
2.1,13.1842,4.95064,3.63871,2.18182,-4,-0.0956416,0,-1.40334e-14
2.12,13.2271,4.95059,3.68158,2.10182,-4,-0.0242627,0,-1.40334e-14
2.14,13.2683,4.95057,3.72275,2.02182,-1.73945,-0.0930449,0,-1.40334e-14
2.16,13.3084,4.9504,3.76289,2,0,-0.635706,0,-1.40334e-14
2.18,13.3484,4.94933,3.80289,2,0,-2.31042,0,-1.40334e-14
2.2,13.3883,4.94699,3.84289,2,0,-4.80313,0,-1.40334e-14
2.22,13.428,4.94245,3.88289,2,0,-8.28321,0,-1.40334e-14
2.24,13.4674,4.93521,3.92289,2,0,-12.6343,0,-1.40334e-14
2.26,13.5061,4.92512,3.96289,2,0,-17.671,0,-1.40334e-14
2.28,13.5434,4.91082,4.00289,2,0,-23.246,0,-1.40334e-14
2.3,13.5793,4.89333,4.04289,2,0,-28.7991,0,-1.40334e-14
2.32,13.6135,4.87255,4.08289,2,0,-33.9071,0,-1.40334e-14
2.34,13.6458,4.84904,4.12289,2,0,-38.1337,0,-1.40334e-14
2.36,13.6765,4.82343,4.16289,2,0,-41.1498,0,-1.40334e-14
2.38,13.7062,4.79659,4.20289,2,-1.3037,-42.8199,0,-1.40334e-14
2.4,13.7352,4.76942,4.24263,1.9627,-4,-43.2788,0,-1.40334e-14
2.42,13.7633,4.74328,4.28101,1.8827,-4,-42.3576,0,-1.40334e-14
2.44,13.7909,4.7188,4.31795,1.8027,-4,-40.3467,0,-1.40334e-14
2.46,13.8184,4.69686,4.3531,1.7227,-4,-37.3097,0,-1.40334e-14
2.48,13.8458,4.67728,4.38677,1.6427,-4,-33.6739,0,-1.40334e-14
2.5,13.873,4.66024,4.41891,1.5627,-4,-29.6482,0,-1.40334e-14
2.52,13.8999,4.64617,4.44928,1.4827,-4,-25.4689,0,-1.40334e-14
2.54,13.9264,4.63482,4.47808,1.4027,-4,-21.4117,0,-1.40334e-14
2.56,13.952,4.62586,4.5053,1.3227,-4,-17.6809,0,-1.40334e-14
2.58,13.9767,4.61883,4.53093,1.2427,-4,-14.3622,0,-1.40334e-14
2.6,14.0001,4.6134,4.55497,1.1627,-4,-11.4734,0,-1.40334e-14
2.62,14.0222,4.60931,4.57744,1.0827,-4,-9.01429,0,-1.40334e-14
2.64,14.043,4.60638,4.59843,1.0027,-4,-6.98132,0,-1.40334e-14
2.66,14.062,4.60446,4.61752,0.922699,-4,-5.41111,0,-1.40334e-14
2.68,14.0793,4.60305,4.63495,0.842699,-4,-4.13574,0,-1.40334e-14
2.7,14.0955,4.60196,4.65117,0.762699,-4,-3.04699,0,-1.40334e-14
2.72,14.1097,4.60128,4.66536,0.682699,-4,-2.23414,0,-1.40334e-14
2.74,14.1224,4.60081,4.6781,0.602699,-4,-1.60454,0,-1.40334e-14
2.76,14.1333,4.60061,4.68899,0.522699,-4,-1.2131,0,-1.40334e-14
2.78,14.1435,4.60043,4.69923,0.442699,-4,-0.850834,0,-1.40334e-14
2.8,14.148,4.60038,4.70373,0.362699,-4,-0.748582,0,-1.40334e-14
2.82,14.1525,4.60034,4.70824,0.282699,-4,-0.646331,0,-1.40334e-14
2.84,14.157,4.6003,4.71275,0.202699,-4,-0.544079,0,-1.40334e-14
2.86,14.1616,4.60026,4.71726,0.122699,-4,-0.441827,0,-1.40334e-14
2.88,14.1661,4.60021,4.72176,0.042699,-4,-0.339576,0,-1.40334e-14
