"time","x","y","position","velocity","acceleration","heading","curvature","rotation"
0,1.87831,5.17533,0,0,3,0,0,180
0.02,1.88221,5.17533,0.00390384,0.06,3,-0.00535309,0,180
0.04,1.88612,5.17532,0.00780769,0.12,3,-0.0107062,0,180
0.06,1.89002,5.17532,0.0117115,0.18,3,-0.0160593,0,180
0.08,1.89393,5.17532,0.0156154,0.24,3,-0.0214124,0,180
0.1,1.89783,5.17532,0.0195192,0.3,3,-0.0267654,0,180
0.12,1.90173,5.17532,0.0234231,0.36,3,-0.0321185,0,180
0.14,1.90836,5.17531,0.030052,0.42,3,-0.0484733,0,180
0.16,1.91779,5.1753,0.0394767,0.48,3,-0.0761153,0,180
0.18,1.92721,5.17529,0.0489014,0.54,3,-0.103757,0,180
0.2,1.93892,5.17526,0.0606082,0.6,3,-0.153142,0,180
0.22,1.9512,5.17523,0.0728907,0.66,3,-0.208011,0,180
0.24,1.96515,5.17517,0.086844,0.72,3,-0.290829,0,180
0.26,1.97972,5.17509,0.101413,0.78,3,-0.383955,0,180
0.28,1.99623,5.17494,0.117925,0.84,3,-0.519993,0,180
0.3,2.01356,5.17476,0.135254,0.9,3,-0.674473,0,180
0.32,2.03195,5.17453,0.153646,0.96,3,-0.853383,0,180
0.34,2.05184,5.17421,0.173537,1.02,3,-1.07239,0,180
0.36,2.07289,5.17375,0.19459,1.08,3,-1.33713,0,180
0.38,2.09508,5.17316,0.216786,1.14,3,-1.64486,0,180
0.4,2.11845,5.17242,0.240166,1.2,3,-1.99756,0,180
0.42,2.14301,5.17149,0.264748,1.26,3,-2.3993,0,180
0.44,2.16877,5.17032,0.290536,1.32,3,-2.86053,0,180
0.46,2.19572,5.16883,0.317527,1.38,3,-3.38903,0,180
0.48,2.22385,5.16701,0.345712,1.44,3,-3.9819,0,180
0.5,2.25313,5.16483,0.375078,1.5,3,-4.64214,0,180
0.52,2.28355,5.16221,0.405612,1.56,3,-5.37555,0,180
0.54,2.31523,5.15895,0.437463,1.62,3,-6.20286,0,180
0.56,2.34803,5.15511,0.470486,1.68,3,-7.10713,0,180
0.58,2.38189,5.15062,0.504637,1.74,3,-8.08612,0,180
0.6,2.41691,5.14533,0.540057,1.8,3,-9.14682,0,180
0.62,2.45299,5.13917,0.576659,1.86,3,-10.2778,0,180
0.64,2.49009,5.13203,0.61444,1.92,3,-11.4642,0,180
0.66,2.52823,5.12385,0.653449,1.98,3,-12.6848,0,180
0.68,2.56735,5.1146,0.693649,2.04,3,-13.9071,0,180
0.7,2.6074,5.10426,0.735013,2.1,3,-15.0944,0,180
0.72,2.64844,5.09273,0.777649,2.16,3,-16.1865,0,180
0.74,2.6904,5.08017,0.821444,2.22,3,-17.1329,0,180
0.76,2.73328,5.06661,0.866418,2.28,3,-17.8516,0,180
0.78,2.77718,5.05226,0.912612,2.34,3,-18.3113,0,180
0.8,2.82217,5.03728,0.960027,2.4,3,-18.4364,0,180
0.82,2.86831,5.02198,1.00863,2.46,0.797591,-18.2037,0,180
0.84,2.91512,5.0068,1.05785,2.44783,-3,-17.6227,0,180
0.86,2.96131,4.99249,1.1062,2.38783,-3,-16.7336,0,180
0.88,3.00659,4.97934,1.15336,2.32783,-3,-15.614,0,180
0.9,3.05099,4.96743,1.19932,2.26783,-3,-14.3499,0,180
0.92,3.09449,4.9568,1.24411,2.20783,-3,-13.0095,0,180
0.94,3.13701,4.94753,1.28763,2.14783,-3,-11.6512,0,180
0.96,3.17858,4.93945,1.32997,2.08783,-3,-10.321,0,180
0.98,3.21919,4.93252,1.37118,2.02783,-3,-9.04811,0,180
1,3.25866,4.92671,1.41108,1.96783,-3,-7.86298,0,180
1.02,3.29714,4.92174,1.44987,1.90783,-3,-6.76089,0,180
1.04,3.33442,4.91765,1.48738,1.84783,-3,-5.7612,0,180
1.06,3.37069,4.91428,1.52381,1.78783,-3,-4.85577,0,180
1.08,3.40567,4.91159,1.55889,1.72783,-3,-4.05656,0,180
1.1,3.43956,4.90938,1.59285,1.66783,-3,-3.33837,0,180
1.12,3.47234,4.90763,1.62568,1.60783,-3,-2.70555,0,180
1.14,3.50379,4.90634,1.65716,1.54783,-3,-2.16827,0,180
1.16,3.5341,4.90531,1.68748,1.48783,-3,-1.69795,0,180
1.18,3.56324,4.90454,1.71663,1.42783,-3,-1.2955,0,180
1.2,3.5912,4.90401,1.74459,1.36783,-3,-0.962561,0,180
1.22,3.61795,4.90362,1.77135,1.30783,-3,-0.68685,0,180
1.24,3.6435,4.90336,1.7969,1.24783,-3,-0.459814,0,180
1.26,3.66783,4.9032,1.82123,1.18783,-3,-0.290418,0,180
1.28,3.69095,4.90312,1.84435,1.12783,-3,-0.168113,0,180
1.3,3.71287,4.90307,1.86627,1.06783,-3,-0.0821412,0,180
1.32,3.73364,4.90305,1.88704,1.00783,-3,-0.0287601,0,180
1.34,3.75332,4.90304,1.90673,0.947827,-2.79375,-0.00460744,0,180
1.36,3.77156,4.90304,1.92496,0.887827,-0.639924,-0.00927472,0,179.947
1.38,3.78921,4.90304,1.94261,0.87,0,-0.0250531,0,179.79
1.4,3.80661,4.90303,1.96001,0.87,0,-0.0487778,0,179.527
1.42,3.82401,4.90301,1.97741,0.87,0,-0.0826195,0,179.158
1.44,3.84141,4.90297,1.99481,0.87,0,-0.12642,0,178.685
1.46,3.85881,4.90293,2.01221,0.87,0,-0.176929,0,178.106
1.48,3.87621,4.90287,2.02961,0.87,0,-0.235704,0,177.422
1.5,3.89361,4.90278,2.04701,0.87,0,-0.304718,0,176.633
1.52,3.911,4.90268,2.06441,0.87,0,-0.380027,0,175.739
1.54,3.9284,4.90256,2.08181,0.87,0,-0.462238,0,174.739
1.56,3.9458,4.9024,2.09921,0.87,0,-0.555194,0,173.634
1.58,3.9632,4.90221,2.11661,0.87,0,-0.654216,0,172.424
1.6,3.9806,4.90201,2.13401,0.87,0,-0.759293,0,171.109
1.62,3.998,4.90175,2.15141,0.87,0,-0.875156,0,169.688
1.64,4.0154,4.90147,2.16881,0.87,0,-0.997678,0,168.163
1.66,4.03279,4.90114,2.18621,0.87,0,-1.1267,0,166.532
1.68,4.05019,4.90076,2.20361,0.87,0,-1.26741,0,164.795
1.7,4.06759,4.90035,2.22101,0.87,0,-1.41049,0,162.954
1.72,4.08498,4.89992,2.23841,0.87,0,-1.5578,0,161.007
1.74,4.10237,4.89941,2.25581,0.87,0,-1.71789,0,158.956
1.76,4.11976,4.89886,2.27321,0.87,0,-1.88116,0,156.799
1.78,4.13715,4.89828,2.29061,0.87,0,-2.04878,0,154.536
1.8,4.15454,4.89762,2.30801,0.87,0,-2.22514,0,152.169
1.82,4.17193,4.89691,2.32541,0.87,0,-2.40538,0,149.696
1.84,4.18931,4.89616,2.34281,0.87,0,-2.58892,0,147.118
1.86,4.20669,4.89536,2.36021,0.87,0,-2.77693,0,144.435
1.88,4.22407,4.89447,2.37761,0.87,0,-2.96785,0,141.647
1.9,4.24144,4.89355,2.39501,0.87,0,-3.15999,0,138.753
1.92,4.25882,4.89259,2.41241,0.87,0,-3.35328,0,135.754
1.94,4.27618,4.89151,2.42981,0.87,0,-3.54397,0,132.65
1.96,4.29355,4.8904,2.44721,0.87,0,-3.73299,0,129.441
1.98,4.31091,4.88927,2.46461,0.87,0,-3.92,0,126.126
2,4.32827,4.88804,2.48201,0.87,0,-4.09738,0,122.707
2.02,4.34562,4.88676,2.49941,0.87,0,-4.26654,0,119.182
2.04,4.36297,4.88545,2.51681,0.87,0,-4.42868,0,115.551
2.06,4.38032,4.8841,2.53421,0.87,0,-4.58227,0,111.816
2.08,4.39766,4.88268,2.55161,0.87,0,-4.71288,0,107.975
2.1,4.415,4.88122,2.56901,0.87,0,-4.82805,0,104.03
2.12,4.43234,4.87974,2.58641,0.87,0,-4.9279,0,99.9786
2.14,4.44967,4.87824,2.60381,0.87,0,-5.00964,0,95.8223
2.16,4.46701,4.87671,2.62121,0.87,0,-5.07225,0,91.5608
2.18,4.48434,4.87517,2.63861,0.87,0,-5.10274,0,87.2541
2.2,4.50167,4.87362,2.65601,0.87,0,-5.11296,0,83.0462
2.22,4.519,4.87207,2.67341,0.87,0,-5.10719,0,78.9436
2.24,4.53633,4.87052,2.69081,0.87,0,-5.08124,0,74.9461
2.26,4.55366,4.86899,2.70821,0.87,0,-5.01648,0,71.0539
2.28,4.571,4.86748,2.72561,0.87,0,-4.93838,0,67.267
2.3,4.58833,4.86599,2.74301,0.87,0,-4.84869,0,63.5852
2.32,4.60567,4.86454,2.76041,0.87,0,-4.72976,0,60.0087
2.34,4.62301,4.86313,2.77781,0.87,0,-4.59657,0,56.5374
2.36,4.64036,4.86176,2.79521,0.87,0,-4.45015,0,53.1713
2.38,4.65771,4.86043,2.81261,0.87,0,-4.29229,0,49.9104
2.4,4.67506,4.85915,2.83001,0.87,0,-4.1225,0,46.7548
2.42,4.69242,4.85793,2.84741,0.87,0,-3.94405,0,43.7043
2.44,4.70978,4.85677,2.86481,0.87,0,-3.75957,0,40.7591
2.46,4.72714,4.85565,2.88221,0.87,0,-3.57108,0,37.9192
2.48,4.74451,4.85458,2.89961,0.87,0,-3.38019,0,35.1844
2.5,4.76188,4.85361,2.91701,0.87,0,-3.18728,0,32.5549
2.52,4.77926,4.85266,2.93441,0.87,0,-2.99467,0,30.0306
2.54,4.79664,4.85177,2.95181,0.87,0,-2.80356,0,27.6115
2.56,4.81402,4.85096,2.96921,0.87,0,-2.61555,0,25.2976
2.58,4.8314,4.8502,2.98661,0.87,0,-2.43105,0,23.0889
2.6,4.84879,4.84949,3.00401,0.87,0,-2.25011,0,20.9855
2.62,4.86617,4.84883,3.02141,0.87,0,-2.07376,0,18.9873
2.64,4.88356,4.84824,3.03881,0.87,0,-1.90496,0,17.0943
2.66,4.90095,4.84768,3.05621,0.87,0,-1.74057,0,15.3066
2.68,4.91835,4.84716,3.07361,0.87,0,-1.58062,0,13.624
2.7,4.93574,4.84672,3.09101,0.87,0,-1.43171,0,12.0467
2.72,4.95314,4.84631,3.10841,0.87,0,-1.28734,0,10.5746
2.74,4.97053,4.84593,3.12581,0.87,0,-1.14751,0,9.20777
2.76,4.98793,4.84559,3.14321,0.87,0,-1.01616,0,7.94612
2.78,5.00533,4.8453,3.16061,0.87,0,-0.892978,0,6.78969
2.8,5.02272,4.84504,3.17801,0.87,0,-0.776427,0,5.73849
2.82,5.04012,4.84483,3.19541,0.87,0,-0.668941,0,4.79251
2.84,5.05752,4.84464,3.21281,0.87,0,-0.569411,0,3.95175
2.86,5.07492,4.84448,3.23021,0.87,0,-0.475936,0,3.21621
2.88,5.09232,4.84435,3.24761,0.87,0,-0.390877,0,2.58589
2.9,5.10972,4.84424,3.26501,0.87,0,-0.314948,0,2.0608
2.92,5.12712,4.84416,3.28241,0.87,0,-0.245308,0,1.64093
2.94,5.14452,4.84409,3.29981,0.87,0,-0.183466,0,1.32628
2.96,5.16192,4.84404,3.31721,0.87,0,-0.132192,0,1.11685
2.98,5.17932,4.84401,3.33461,0.87,0,-0.0876236,0,1.01265
3,5.19672,4.84399,3.35201,0.87,0,-0.0503686,0,1
3.02,5.21412,4.84398,3.36941,0.87,0,-0.0257817,0,1
3.04,5.23152,4.84397,3.38681,0.87,1.0198,-0.00950481,0,1
3.06,5.24895,4.84397,3.40424,0.872187,3,-0.00390661,0,1
3.08,5.26719,4.84395,3.42248,0.932187,3,-0.073225,0,1
3.1,5.28645,4.84393,3.44174,0.992187,3,-0.153493,0,1
3.12,5.30683,4.84385,3.46212,1.05219,3,-0.302144,0,1
3.14,5.32839,4.84367,3.48368,1.11219,3,-0.56597,0,1
3.16,5.35117,4.84344,3.50646,1.17219,3,-0.867834,0,1
3.18,5.37518,4.84292,3.53048,1.23219,3,-1.3347,0,1
3.2,5.40042,4.84227,3.55572,1.29219,3,-1.86298,0,1
3.22,5.42685,4.84121,3.58218,1.35219,3,-2.55466,0,1
3.24,5.45449,4.83979,3.60985,1.41219,3,-3.35979,0,1
3.26,5.4833,4.83785,3.63873,1.47219,3,-4.32032,0,1
3.28,5.51325,4.83532,3.66879,1.53219,3,-5.43057,0,1
3.3,5.5443,4.83201,3.70002,1.59219,3,-6.70683,0,1
3.32,5.57642,4.82791,3.7324,1.65219,3,-8.13633,0,1
3.34,5.60969,4.82261,3.76609,1.71219,3,-9.74786,0,1
3.36,5.64395,4.81623,3.80094,1.77219,3,-11.485,0,1
3.38,5.67909,4.80851,3.83693,1.83219,3,-13.3153,0,1
3.4,5.71523,4.79931,3.87422,1.89219,0.97042,-15.1701,0,1
3.42,5.75177,4.78884,3.91223,1.899,-3,-16.9355,0,1
3.44,5.7873,4.77745,3.94955,1.839,-3,-18.3953,0,1
3.46,5.82158,4.76572,3.98578,1.779,-3,-19.5491,0,1
3.48,5.85441,4.75379,4.02071,1.719,-3,-20.1948,0,1
3.5,5.88607,4.74204,4.05448,1.659,-3,-20.4744,0,1
3.52,5.91664,4.73062,4.08711,1.599,-3,-20.3669,0,1
3.54,5.94609,4.71986,4.11847,1.539,-3,-19.8535,0,1
3.56,5.97449,4.70979,4.1486,1.479,-3,-19.0925,0,1
3.58,6.00193,4.70054,4.17756,1.419,-3,-18.1184,0,1
3.6,6.02842,4.6922,4.20533,1.359,-3,-16.9814,0,1
3.62,6.05391,4.68468,4.2319,1.299,-3,-15.787,0,1
3.64,6.07838,4.67802,4.25727,1.239,-3,-14.5624,0,1
3.66,6.10183,4.67224,4.28143,1.179,-3,-13.3493,0,1
3.68,6.12422,4.66717,4.30439,1.119,-3,-12.1833,0,1
3.7,6.14554,4.66274,4.32617,1.059,-3,-11.0799,0,1
3.72,6.16584,4.65895,4.34682,0.999001,-3,-10.0478,0,1
3.74,6.18499,4.65576,4.36623,0.939001,-3,-9.10751,0,1
3.76,6.20276,4.65302,4.38421,0.879001,-3,-8.25502,0,1
3.78,6.21956,4.65067,4.40117,0.819001,-2.16722,-7.48025,0,1
3.8,6.2354,4.64874,4.41713,0.759001,-0.282706,-6.78724,0,1
3.82,6.25045,4.64707,4.43227,0.75,0,-6.15739,0,1
3.84,6.26536,4.64549,4.44727,0.75,0,-5.54572,0,1
3.86,6.2803,4.64413,4.46227,0.75,0,-4.97181,0,1
3.88,6.29525,4.64291,4.47727,0.75,0,-4.42674,0,1
3.9,6.31021,4.64184,4.49227,0.75,0,-3.91502,0,1
3.92,6.32518,4.64086,4.50727,0.75,0,-3.42294,0,1
3.94,6.34015,4.63994,4.52227,0.75,0,-2.94357,0,1
3.96,6.35514,4.63932,4.53727,0.75,0,-2.54628,0,1
3.98,6.37013,4.63871,4.55227,0.75,0,-2.15588,0,1
4,6.38512,4.63815,4.56727,0.75,0,-1.77651,0,1
4.02,6.40011,4.63775,4.58227,0.75,0,-1.45773,0,1
4.04,6.41511,4.63743,4.59727,0.75,0,-1.16612,0,1
4.06,6.4301,4.63716,4.61227,0.75,0,-0.902705,0,1
4.08,6.4451,4.63693,4.62727,0.75,0,-0.663401,0,1
4.1,6.4601,4.6368,4.64227,0.75,0,-0.479129,0,1
4.12,6.4751,4.6367,4.65727,0.75,0,-0.321818,0,1
4.14,6.4901,4.63662,4.67227,0.75,0,-0.181702,0,1
4.16,6.5051,4.63659,4.68727,0.75,0,-0.110239,0,1
4.18,6.5201,4.63658,4.70227,0.75,0,-0.061288,0,1
4.2,6.5351,4.63656,4.71727,0.75,0,-0.0688885,0,1
4.22,6.5501,4.63653,4.73227,0.75,0,-0.147461,0,0.997777
4.24,6.5651,4.63648,4.74727,0.75,0,-0.288813,0,0.991108
4.26,6.5801,4.63637,4.76227,0.75,0,-0.544768,0,0.979993
4.28,6.5951,4.63621,4.77727,0.75,0,-0.841287,0,0.964432
4.3,6.6101,4.63593,4.79227,0.75,0,-1.24658,0,0.944425
4.32,6.62509,4.63554,4.80727,0.75,0,-1.70107,0,0.919972
4.34,6.64008,4.63503,4.82227,0.75,0,-2.21555,0,0.891073
4.36,6.65506,4.6343,4.83727,0.75,0,-2.7689,0,0.857728
4.38,6.67004,4.63348,4.85227,0.75,0,-3.32888,0,0.819937
4.4,6.68501,4.63255,4.86727,0.75,0,-3.80399,0,0.7777
4.42,6.69998,4.63154,4.88227,0.75,0,-4.20857,0,0.731017
4.44,6.71493,4.63037,4.89727,0.75,0,-4.49353,0,0.679888
4.46,6.72989,4.62921,4.91227,0.75,0,-4.51277,0,0.624313
4.48,6.74484,4.62804,4.92727,0.75,0,-4.40556,0,0.564292
4.5,6.7598,4.62689,4.94227,0.75,0,-4.10869,0,0.499825
4.52,6.77476,4.62584,4.95727,0.75,0,-3.73143,0,0.435381
4.54,6.78974,4.62503,4.97227,0.75,0,-3.16563,0,0.375383
4.56,6.80472,4.62427,4.98727,0.75,-0.731692,-2.60872,0,0.319832
4.58,6.8197,4.62355,5.00227,0.75,-1.95593,-2.0578,0,0.268726
4.6,6.83403,4.62313,5.0166,0.712503,-2.54373,-1.59465,0,0.222066
4.62,6.84804,4.62276,5.03062,0.668755,-3,-1.15994,0,0.179853
4.64,6.86032,4.62257,5.0429,0.608755,-3,-0.861354,0,0.142085
4.66,6.87244,4.62239,5.05503,0.548755,-3,-0.570921,0,0.108763
4.68,6.88187,4.62233,5.06445,0.488755,-3,-0.419226,0,0.0798878
4.7,6.89129,4.62227,5.07388,0.428755,-3,-0.267531,0,0.0554582
4.72,6.89873,4.62222,5.08131,0.368755,-3,-0.16181,0,0.0354745
4.74,6.90263,4.62222,5.08522,0.308755,-3,-0.137649,0,0.0199369
4.76,6.90653,4.62222,5.08912,0.248755,-3,-0.113487,0,0.00884529
4.78,6.91044,4.62221,5.09302,0.188755,-3,-0.0893247,0,0.00219967
4.8,6.91434,4.62221,5.09693,0.128755,-3,-0.0651627,0,0
4.82,6.91824,4.6222,5.10083,0.0687553,-3,-0.0410008,0,0
4.84,6.92215,4.6222,5.10474,0.00875528,-3,-0.0168388,0,0
